ecg,ppg
0.09521,-0.52979
0.10742,-0.46265
0.12085,-0.36743
0.11841,-0.27466
0.10254,-0.19043
0.07446,-0.10376
0.07446,0.01099
0.06592,0.1062
0.04883,0.20264
0.01709,0.27588
0.0061,0.36865
-0.00977,0.45654
-0.02808,0.52124
-0.05249,0.60669
-0.06348,0.64209
-0.06104,0.6958
-0.05615,0.74951
-0.06714,0.77148
-0.06104,0.79346
-0.06836,0.79712
-0.07324,0.78857
-0.08057,0.79468
-0.08057,0.79468
-0.06592,0.76782
-0.0769,0.75439
-0.06836,0.74585
-0.05981,0.71655
-0.03784,0.69702
-0.03906,0.66528
-0.04761,0.65186
-0.07568,0.61646
-0.07446,0.5896
-0.07568,0.55298
-0.08057,0.55176
-0.08179,0.50537
-0.08057,0.50415
-0.05981,0.48584
-0.05005,0.45044
-0.0354,0.42969
-0.0354,0.42847
-0.03418,0.41382
-0.04272,0.39673
-0.04517,0.37598
-0.04761,0.36499
-0.04395,0.33569
-0.04883,0.32593
-0.04028,0.30518
-0.05127,0.27344
-0.05615,0.26489
-0.05859,0.24048
-0.05615,0.22217
-0.05859,0.20874
-0.0708,0.18677
-0.0647,0.15137
-0.06348,0.13428
-0.06226,0.11841
-0.04761,0.12939
-0.04395,0.09155
-0.04761,0.09521
-0.05371,0.09033
-0.07202,0.08423
-0.06226,0.06958
-0.04272,0.05737
-0.03052,0.04883
-0.0293,0.0354
-0.04639,0.03296
-0.04517,0.0415
-0.0415,0.04517
-0.03296,0.04639
-0.01953,0.02319
-0.01831,0.02319
0,0.01953
0.00244,0.02686
0.01953,0.01343
0.01221,0.01587
0.00366,-0.00488
-0.00732,-0.00244
-0.01953,-0.01709
-0.03052,-0.02319
-0.03662,-0.06104
-0.04639,-0.05859
-0.04761,-0.0769
-0.0647,-0.10132
-0.06836,-0.09521
-0.06714,-0.11108
-0.06104,-0.13672
-0.05005,-0.14282
-0.06226,-0.16724
-0.0647,-0.2002
-0.06958,-0.19653
-0.06104,-0.2356
-0.03418,-0.23926
-0.01343,-0.26367
0.00244,-0.28442
0.0293,-0.3064
0.0647,-0.30884
0.13184,-0.33325
0.15991,-0.35034
0.15015,-0.37842
0.06836,-0.39429
-0.04761,-0.42725
-0.12695,-0.43091
-0.16724,-0.46143
-0.14526,-0.47485
-0.10498,-0.49072
-0.07935,-0.5188
-0.05249,-0.51392
-0.04639,-0.54321
-0.04028,-0.54199
-0.03662,-0.55908
-0.04028,-0.59448
-0.03296,-0.61279
-0.03174,-0.61035
-0.01709,-0.64209
0.00244,-0.65063
0.0061,-0.66284
0.01465,-0.67017
0.00244,-0.67871
0.00854,-0.70068
0.01221,-0.70313
0.01709,-0.70557
0.02686,-0.71533
0.01465,-0.74463
0.02197,-0.75073
0.02686,-0.75195
0.04028,-0.76538
0.05981,-0.7959
0.04517,-0.80444
0.03174,-0.81177
0.04517,-0.80566
0.05615,-0.83008
0.09033,-0.82764
0.10498,-0.82886
0.11108,-0.81421
0.10742,-0.80933
0.10986,-0.79346
0.11108,-0.77271
0.10254,-0.72388
0.09644,-0.66528
0.08911,-0.62988
0.09155,-0.54077
0.10986,-0.47241
0.10376,-0.39185
0.09888,-0.29541
0.07568,-0.19897
0.06226,-0.09644
0.04395,0.02197
0.03174,0.11353
0.02563,0.21118
0.01099,0.30029
0.00122,0.37842
0.00366,0.46021
-0.01953,0.5127
-0.03418,0.58838
-0.05371,0.62134
-0.05493,0.68115
-0.05249,0.71289
-0.0708,0.72266
-0.09277,0.72754
-0.10254,0.73242
-0.11108,0.72388
-0.10376,0.73853
-0.1062,0.71411
-0.10254,0.70801
-0.08179,0.6665
-0.06226,0.65186
-0.04883,0.62988
-0.06348,0.61035
-0.0769,0.57861
-0.08179,0.55786
-0.07202,0.52979
-0.07202,0.49927
-0.0708,0.48218
-0.05859,0.43701
-0.05493,0.41382
-0.05371,0.39429
-0.06226,0.3894
-0.08545,0.36255
-0.08057,0.35767
-0.06592,0.34058
-0.03784,0.32593
-0.0293,0.30884
-0.04883,0.28442
-0.0769,0.27954
-0.09155,0.26001
-0.08301,0.21973
-0.06958,0.19653
-0.05249,0.19653
-0.06104,0.17944
-0.05981,0.13794
-0.04883,0.13794
-0.03784,0.11475
-0.04517,0.08301
-0.06226,0.08911
-0.06836,0.07568
-0.06104,0.05371
-0.05981,0.04883
-0.06714,0.04272
-0.06958,0.03174
-0.06226,0.0061
-0.05371,0
-0.05005,0.01343
-0.04761,0.01099
-0.04395,-0.00977
-0.04761,-0.00366
-0.03052,0.00488
-0.01831,-0.01953
-0.01587,-0.00122
-0.02075,-0.03174
-0.03418,-0.02075
-0.03418,-0.01709
-0.02686,-0.02075
-0.02197,-0.0293
-0.00977,-0.05371
0.0061,-0.04883
0.01343,-0.08179
0.02075,-0.08667
0.01221,-0.1001
0.00244,-0.11597
-0.00244,-0.11841
-0.00854,-0.12695
-0.02075,-0.15381
-0.02319,-0.16602
-0.02808,-0.1709
-0.0293,-0.20874
-0.03052,-0.20752
-0.02319,-0.23193
-0.03174,-0.25146
-0.03296,-0.28076
-0.03418,-0.28687
-0.04028,-0.30884
-0.03296,-0.3418
-0.04395,-0.34546
-0.05859,-0.36133
-0.05249,-0.40283
-0.04272,-0.40527
-0.00366,-0.44067
0.02197,-0.43945
0.07324,-0.46265
0.14771,-0.47607
0.19531,-0.49194
0.19409,-0.50781
0.11841,-0.55176
0.00488,-0.56152
-0.08545,-0.57983
-0.14282,-0.57983
-0.14038,-0.61035
-0.10986,-0.62988
-0.08911,-0.62134
-0.04883,-0.65674
-0.0415,-0.65796
-0.02808,-0.66284
-0.03052,-0.6897
-0.03296,-0.69946
-0.02686,-0.70435
-0.02686,-0.71167
0,-0.74097
0.01221,-0.75806
0.02808,-0.76294
0.0415,-0.77881
0.0415,-0.78369
0.04639,-0.78979
0.05005,-0.78735
0.04761,-0.81055
0.03906,-0.82642
0.03174,-0.81543
0.0354,-0.8313
0.04639,-0.85449
0.05981,-0.83862
0.07446,-0.84961
0.07446,-0.87646
0.05127,-0.86182
0.03784,-0.88135
0.05493,-0.87891
0.09644,-0.89355
0.12573,-0.88745
0.1355,-0.896
0.12817,-0.89111
0.12329,-0.85327
0.14038,-0.84839
0.14404,-0.79834
0.15015,-0.77148
0.13794,-0.68848
0.12451,-0.64209
0.11353,-0.54199
0.11353,-0.46387
0.11353,-0.37842
0.11353,-0.26123
0.10864,-0.16113
0.08057,-0.0647
0.05981,0.03784
0.04028,0.14038
0.02808,0.23071
0.02197,0.30396
0.01831,0.40161
0.01099,0.47485
0.00854,0.53955
-0.01587,0.59814
-0.03052,0.64819
-0.04028,0.66284
-0.04761,0.70679
-0.05859,0.72754
-0.07202,0.72266
-0.07568,0.7312
-0.07446,0.7312
-0.07813,0.71899
-0.07935,0.71045
-0.07813,0.69336
-0.07568,0.68237
-0.06958,0.65063
-0.06836,0.62256
-0.0647,0.5896
-0.06836,0.58105
-0.05249,0.55542
-0.03296,0.51392
-0.02686,0.49072
-0.03052,0.46265
-0.0415,0.44922
-0.05981,0.42725
-0.0647,0.40527
-0.07324,0.38086
-0.05371,0.35767
-0.04028,0.35278
-0.01709,0.32837
-0.02075,0.31372
-0.03418,0.29053
-0.04272,0.29785
-0.0415,0.26489
-0.04272,0.2478
-0.03052,0.24414
-0.03174,0.20508
-0.03418,0.18555
-0.03784,0.1709
-0.04639,0.14893
-0.03296,0.14282
-0.03906,0.14038
-0.04272,0.1062
-0.05859,0.11108
-0.05127,0.08911
-0.0354,0.08911
-0.0354,0.06104
-0.03418,0.07568
-0.04395,0.04639
-0.04028,0.05737
-0.03296,0.05127
-0.03052,0.0354
-0.02563,0.05249
-0.03662,0.02563
-0.04639,0.04028
-0.0415,0.03906
-0.03784,0.01587
-0.03784,0.03052
-0.04883,0.02808
-0.05127,0.00244
-0.04272,0
-0.03784,0.0061
-0.03174,0.0061
-0.03296,-0.01465
-0.03052,-0.03052
-0.01099,-0.04639
0.0061,-0.05493
0.02319,-0.05249
0.0354,-0.06958
0.04517,-0.1001
0.05493,-0.09399
0.0415,-0.12207
0.03052,-0.14404
0,-0.15137
-0.01953,-0.16724
-0.02808,-0.18188
-0.03784,-0.2002
-0.0293,-0.24292
-0.0293,-0.26245
-0.0354,-0.26978
-0.04883,-0.28931
-0.05615,-0.30273
-0.04517,-0.31982
-0.03662,-0.34302
-0.02808,-0.354
-0.01709,-0.37598
-0.02808,-0.41382
-0.0293,-0.41138
-0.02441,-0.44067
0.01221,-0.44922
0.06104,-0.46265
0.11353,-0.50659
0.17334,-0.50049
0.20508,-0.53833
0.19165,-0.5542
0.1123,-0.56274
-0.01709,-0.57861
-0.09888,-0.59448
-0.14404,-0.61401
-0.13672,-0.6189
-0.10376,-0.62744
-0.06592,-0.63477
-0.00732,-0.66162
0.01465,-0.67749
0.01099,-0.67505
0.00122,-0.7019
-0.0061,-0.71655
0.00244,-0.70679
0,-0.71899
0.00122,-0.74097
0.00488,-0.73486
0.01709,-0.77148
0.02563,-0.77881
0.03052,-0.78979
0.0354,-0.79712
0.05493,-0.78369
0.05127,-0.81421
0.05737,-0.80078
0.05493,-0.81055
0.05981,-0.82397
0.0647,-0.83496
0.07324,-0.85693
0.08545,-0.8374
0.09521,-0.85327
0.08545,-0.88013
0.07935,-0.8667
0.06836,-0.8667
0.09155,-0.86792
0.11841,-0.89355
0.12695,-0.87646
0.13672,-0.88501
0.13062,-0.86182
0.13916,-0.84595
0.13672,-0.80444
0.15259,-0.74829
0.16968,-0.69214
0.15381,-0.62012
0.14893,-0.55908
0.13062,-0.48218
0.12085,-0.36865
0.10986,-0.28931
0.09277,-0.18311
0.07446,-0.09521
0.06348,0.02441
0.06348,0.10742
0.06836,0.21484
0.05127,0.28687
0.0354,0.37476
0.00977,0.43701
-0.00854,0.52002
-0.01465,0.56763
-0.02441,0.62256
-0.0293,0.65186
-0.0293,0.6665
-0.02441,0.69946
-0.01953,0.6958
-0.02686,0.6958
-0.04395,0.70923
-0.06714,0.68726
-0.07446,0.67505
-0.0708,0.67993
-0.06592,0.65796
-0.0647,0.62744
-0.05859,0.61279
-0.04272,0.58594
-0.0354,0.54688
-0.03418,0.5249
-0.02686,0.48462
-0.02319,0.46631
-0.01343,0.44922
-0.01831,0.42725
-0.04272,0.40649
-0.04395,0.38452
-0.04761,0.36011
-0.04517,0.33691
-0.04028,0.31494
-0.05371,0.29175
-0.04395,0.2771
-0.03906,0.26001
-0.0415,0.25024
-0.0293,0.24536
-0.03296,0.22217
-0.02441,0.19287
-0.04028,0.19409
-0.05249,0.16724
-0.04639,0.14648
-0.03662,0.14526
-0.02441,0.13916
-0.04883,0.12695
-0.05249,0.11719
-0.05371,0.09644
-0.04272,0.08057
-0.02686,0.08179
-0.02197,0.09277
-0.0293,0.08301
-0.02319,0.0647
-0.03296,0.06226
-0.03662,0.07202
-0.04517,0.08179
-0.04395,0.08179
-0.04395,0.07324
-0.04272,0.06226
-0.04272,0.05615
-0.03296,0.0647
-0.03662,0.07568
-0.02563,0.05493
-0.02563,0.05249
-0.01221,0.05249
-0.02197,0.05249
-0.02563,0.02808
-0.0354,0.01953
-0.03174,0.01343
-0.01953,0.02197
0.01099,0.00732
0.02686,-0.00732
0.02441,-0.01953
0.00366,-0.03296
-0.00854,-0.04272
0.0061,-0.07935
0.02441,-0.09399
0.0354,-0.10376
0.0061,-0.12817
-0.00366,-0.14404
-0.00244,-0.14404
-0.00244,-0.17334
-0.02808,-0.20386
-0.05493,-0.21729
-0.06958,-0.21851
-0.05981,-0.26245
-0.04761,-0.26001
-0.04272,-0.30029
-0.05005,-0.30396
-0.05615,-0.32349
-0.05615,-0.34546
-0.05005,-0.35889
-0.03418,-0.37231
-0.01587,-0.4126
0.01587,-0.43091
0.05127,-0.44678
0.11353,-0.46265
0.17822,-0.47607
0.19897,-0.47485
0.16724,-0.5127
0.09521,-0.52368
-0.00732,-0.52368
-0.08545,-0.55664
-0.14526,-0.55908
-0.15869,-0.58716
-0.13916,-0.58594
-0.09644,-0.60425
-0.06226,-0.60181
-0.03906,-0.63965
-0.0354,-0.64575
-0.04028,-0.65552
-0.0354,-0.64941
-0.02197,-0.68848
-0.0061,-0.68481
0.01221,-0.6958
0.00366,-0.71777
0.00854,-0.72021
0.0061,-0.71899
0.01221,-0.72632
0.01343,-0.75684
0.00977,-0.76782
-0.00122,-0.77148
0.00732,-0.76538
0.02319,-0.77881
0.04395,-0.77393
0.04272,-0.79834
0.0354,-0.80078
0.02808,-0.79102
0.0415,-0.80444
0.06104,-0.80811
0.06836,-0.81177
0.0769,-0.81787
0.07935,-0.84595
0.09521,-0.84961
0.1001,-0.8374
0.09277,-0.81909
0.08301,-0.82886
0.08301,-0.78979
0.10254,-0.77393
0.10376,-0.73242
0.09033,-0.66406
0.08301,-0.61646
0.09033,-0.53955
0.09644,-0.46265
0.1001,-0.36621
0.08545,-0.28809
0.07324,-0.18433
0.05005,-0.06958
0.03662,0.02075
0.03418,0.10498
0.01709,0.21851
-0.00732,0.29785
-0.02686,0.3772
-0.03662,0.46509
-0.0354,0.52612
-0.0415,0.57983
-0.04639,0.6311
-0.05127,0.66772
-0.06348,0.69092
-0.06836,0.71167
-0.07324,0.72388
-0.08057,0.72754
-0.07813,0.73242
-0.08789,0.73364
-0.08057,0.73242
-0.0708,0.72021
-0.05249,0.70068
-0.03906,0.67627
-0.04639,0.65186
-0.05859,0.63599
-0.0708,0.61523
-0.07324,0.57251
-0.0769,0.56763
-0.07568,0.52734
-0.06714,0.50171
-0.0647,0.48828
-0.05493,0.47485
-0.04272,0.43579
-0.05127,0.41626
-0.04639,0.41138
-0.05127,0.38208
-0.05493,0.36133
-0.05005,0.35645
-0.04883,0.3479
-0.03174,0.32593
-0.04761,0.29419
-0.04883,0.2832
-0.05005,0.25879
-0.05981,0.26123
-0.06836,0.23315
-0.07935,0.22949
-0.08423,0.19897
-0.07324,0.19287
-0.05981,0.17334
-0.04883,0.15625
-0.05371,0.14648
-0.04639,0.14771
-0.04761,0.12939
-0.04883,0.11597
-0.05493,0.11475
-0.05737,0.12085
-0.06226,0.11597
-0.05615,0.10132
-0.05493,0.09277
-0.04272,0.08667
-0.03662,0.08423
-0.04517,0.08789
-0.06226,0.08545
-0.07324,0.09155
-0.06714,0.09766
-0.05371,0.08667
-0.05981,0.08545
-0.05615,0.08057
-0.05615,0.08545
-0.04272,0.08911
-0.03784,0.07446
-0.02441,0.05371
-0.02319,0.04639
-0.02319,0.05371
-0.0061,0.04272
0.01465,0.00732
0.02197,0.00244
0.00732,-0.0061
0.00244,-0.03906
0.00977,-0.04395
0.01343,-0.05615
0.01099,-0.07813
0.00122,-0.08789
-0.01343,-0.12695
-0.0293,-0.12695
-0.03662,-0.14648
-0.04761,-0.16846
-0.0415,-0.18921
-0.04028,-0.22827
-0.03296,-0.22339
-0.04883,-0.2478
-0.05371,-0.27588
-0.05981,-0.28809
-0.05981,-0.3064
-0.04761,-0.34302
-0.03174,-0.35156
-0.03052,-0.36133
-0.03052,-0.38574
-0.02808,-0.40771
0.0061,-0.41504
0.05859,-0.43213
0.12939,-0.44678
0.19287,-0.48218
0.19043,-0.49927
0.14893,-0.49194
0.04761,-0.50537
-0.05737,-0.52612
-0.13184,-0.54077
-0.15381,-0.57007
-0.13062,-0.5603
-0.09888,-0.57617
-0.05859,-0.60425
-0.02563,-0.59692
-0.02075,-0.61401
-0.03418,-0.63477
-0.04517,-0.63721
-0.0354,-0.64331
-0.01465,-0.65063
-0.00732,-0.66162
-0.00977,-0.68604
-0.01099,-0.69336
-0.00732,-0.69946
0,-0.7019
0.01587,-0.70679
0.02319,-0.71899
0.01831,-0.73242
0.01343,-0.72632
0.03052,-0.75562
0.05615,-0.76538
0.06592,-0.77026
0.03906,-0.75195
0.02441,-0.77759
0.0293,-0.78735
0.05127,-0.78003
0.07568,-0.79834
0.08423,-0.78613
0.09766,-0.80566
0.10376,-0.78247
0.09399,-0.80688
0.09155,-0.79834
0.09033,-0.79102
0.1062,-0.76904
0.11841,-0.74219
0.11597,-0.68237
0.10742,-0.62988
0.09277,-0.58716
0.09521,-0.51147
0.09766,-0.41382
0.08423,-0.32837
0.08789,-0.23682
0.08179,-0.1416
0.09277,-0.04883
0.08911,0.05737
0.05737,0.15015
0.0354,0.27222
0.00366,0.35278
-0.01099,0.45044
-0.02319,0.53223
-0.03296,0.61035
-0.02441,0.67505
-0.04639,0.72876
-0.0708,0.77759
-0.0769,0.80322
-0.08301,0.82642
-0.06592,0.84961
-0.07568,0.85815
-0.09033,0.86426
-0.1001,0.85938
-0.10376,0.85571
-0.09277,0.86304
-0.09277,0.8252
-0.08789,0.82397
-0.09888,0.80444
-0.1001,0.76904
-0.08179,0.74951
-0.07446,0.71411
-0.0769,0.69458
-0.07568,0.68604
-0.08057,0.6543
-0.07935,0.6311
-0.08179,0.62134
-0.08057,0.5835
-0.0647,0.58472
-0.05615,0.55176
-0.06104,0.53223
-0.06592,0.52124
-0.0708,0.51758
-0.05615,0.4895
-0.05005,0.48706
-0.0647,0.46753
-0.07813,0.45166
-0.08057,0.42114
-0.0769,0.41504
-0.06714,0.41138
-0.05981,0.40039
-0.0647,0.36865
-0.07568,0.35522
-0.07568,0.33569
-0.08057,0.33325
-0.0647,0.31494
-0.06958,0.3125
-0.07446,0.28809
-0.08301,0.28931
-0.07568,0.2832
-0.05615,0.25513
-0.03906,0.26123
-0.03662,0.23804
-0.03296,0.25024
-0.04395,0.22949
-0.05127,0.22583
-0.07446,0.23682
-0.08057,0.21606
-0.07568,0.21118
-0.07813,0.22827
-0.07813,0.21118
-0.08667,0.20752
-0.08789,0.20874
-0.06714,0.18677
-0.05615,0.2002
-0.05249,0.19409
-0.06348,0.16479
-0.05493,0.17944
-0.03906,0.15137
-0.0293,0.15137
-0.03296,0.14526
-0.03418,0.12939
-0.03052,0.10376
-0.01343,0.08423
-0.02319,0.07935
-0.01587,0.06592
-0.02075,0.04883
-0.01221,0.02197
0.00488,0.01221
0,-0.00732
0.00366,-0.02808
-0.00366,-0.05493
-0.02075,-0.09277
-0.03784,-0.10376
-0.06226,-0.10742
-0.06836,-0.1416
-0.07446,-0.16113
-0.06104,-0.17212
-0.05615,-0.21118
-0.05005,-0.21362
-0.03906,-0.25146
-0.04395,-0.2832
-0.05615,-0.29541
-0.07324,-0.30518
-0.08911,-0.33203
-0.0769,-0.36011
-0.04395,-0.37598
-0.01221,-0.39429
0.02563,-0.40894
0.0647,-0.4126
0.13794,-0.42603
0.18799,-0.448
0.19043,-0.4541
0.11841,-0.4895
-0.00122,-0.49072
-0.11841,-0.51147
-0.18921,-0.53467
-0.19287,-0.53101
-0.13428,-0.5542
-0.09033,-0.57495
-0.05615,-0.59448
-0.05371,-0.58838
-0.05615,-0.60303
-0.05615,-0.6311
-0.0415,-0.63477
-0.00732,-0.65186
0.0061,-0.64331
0.00732,-0.6604
-0.01343,-0.68359
-0.02808,-0.69458
-0.02441,-0.7019
-0.0061,-0.69946
0.00488,-0.69946
0.02075,-0.71655
0.01953,-0.71533
0.01831,-0.74585
0.01221,-0.75195
0.02197,-0.76294
0.02808,-0.7666
0.03052,-0.78247
0.0354,-0.78369
0.04395,-0.77637
0.06226,-0.79346
0.07568,-0.78735
0.07813,-0.79468
0.07568,-0.82031
0.07202,-0.802
0.07813,-0.82764
0.07935,-0.81299
0.08667,-0.80322
0.09766,-0.77393
0.09521,-0.75806
0.10254,-0.71289
0.11108,-0.63721
0.12451,-0.5957
0.12085,-0.49805
0.08545,-0.43823
0.0647,-0.34546
0.0647,-0.25269
0.08057,-0.15137
0.08057,-0.04883
0.06958,0.05493
0.05249,0.14893
0.03784,0.23315
0.00732,0.34302
-0.0293,0.4187
-0.05005,0.47607
-0.04883,0.55298
-0.03418,0.625
-0.02808,0.65674
-0.04517,0.70435
-0.07446,0.72266
-0.1001,0.76294
-0.10254,0.76172
-0.09766,0.77881
-0.09277,0.78857
-0.09155,0.76294
-0.08057,0.76416
-0.0647,0.73975
-0.06958,0.71655
-0.06958,0.70679
-0.07568,0.67749
-0.07202,0.65063
-0.06714,0.625
-0.06958,0.61646
-0.06714,0.56885
-0.06836,0.5481
-0.05981,0.54688
-0.05127,0.51514
-0.05371,0.48828
-0.06714,0.46509
-0.07324,0.45898
-0.07568,0.448
-0.05493,0.4126
-0.05249,0.41138
-0.03418,0.38086
-0.04883,0.36743
-0.06836,0.35889
-0.07202,0.34912
-0.0708,0.33813
-0.05493,0.29785
-0.04395,0.30029
-0.05005,0.28564
-0.04517,0.26978
-0.04395,0.22827
-0.03906,0.22339
-0.04761,0.20264
-0.05859,0.2063
-0.05371,0.19409
-0.05615,0.15869
-0.06592,0.16113
-0.07446,0.1355
-0.08179,0.14893
-0.06836,0.13794
-0.06592,0.12817
-0.05615,0.12817
-0.05127,0.11597
-0.06226,0.09644
-0.05737,0.10864
-0.0647,0.10254
-0.05859,0.10376
-0.04883,0.09644
-0.05249,0.08057
-0.04272,0.09766
-0.05371,0.07446
-0.05249,0.07324
-0.0647,0.05859
-0.06714,0.05005
-0.06104,0.04883
-0.04639,0.03906
-0.0354,0.04517
-0.0354,0.01587
-0.04639,0.02197
-0.04395,-0.00854
-0.04395,-0.02686
-0.02808,-0.03418
-0.00122,-0.05859
0.02075,-0.07568
0.03174,-0.08667
0.02319,-0.1001
0.02441,-0.10498
0.02563,-0.1355
0.00732,-0.13916
-0.01465,-0.15991
-0.02319,-0.2002
-0.01465,-0.21851
-0.01465,-0.22949
-0.01587,-0.26611
-0.02563,-0.28198
-0.02563,-0.29053
-0.02686,-0.31494
-0.0354,-0.31738
-0.04883,-0.34912
-0.05859,-0.36377
-0.06348,-0.37842
-0.05249,-0.40771
-0.04883,-0.43945
-0.0293,-0.43701
-0.01587,-0.45288
-0.01221,-0.48706
0.00977,-0.49561
0.01953,-0.50415
0.05493,-0.53345
0.11719,-0.54321
0.18188,-0.55786
0.19653,-0.56763
0.14526,-0.57373
0.03418,-0.60059
-0.0708,-0.60059
-0.15625,-0.63354
-0.17212,-0.65063
-0.14893,-0.65918
-0.1123,-0.67139
-0.0769,-0.68481
-0.05615,-0.67871
-0.02075,-0.68726
-0.00977,-0.70068
-0.00854,-0.71777
-0.01221,-0.72144
-0.02319,-0.74097
-0.01099,-0.72998
-0.00122,-0.74097
0.01221,-0.75928
0.02441,-0.75806
0.01709,-0.79346
0.02319,-0.78003
0.0293,-0.78003
0.04028,-0.802
0.03906,-0.80688
0.03052,-0.83008
0.0293,-0.81665
0.04395,-0.83252
0.05737,-0.83252
0.07568,-0.8374
0.08301,-0.8667
0.09033,-0.86182
0.07935,-0.85571
0.08179,-0.88867
0.07813,-0.89478
0.07813,-0.89722
0.09033,-0.87402
0.09766,-0.87891
0.10864,-0.86548
0.11963,-0.86548
0.12817,-0.81909
0.12695,-0.80688
0.10498,-0.75928
0.10864,-0.69702
0.11963,-0.60791
0.13428,-0.54321
0.14404,-0.46387
0.12207,-0.35645
0.09766,-0.2771
0.09033,-0.16968
0.07935,-0.08423
0.07446,0.01343
0.04639,0.1123
0.02686,0.21973
0.0293,0.29053
0.01831,0.3772
0.00122,0.45288
-0.02319,0.51392
-0.03662,0.56152
-0.03052,0.60669
-0.0293,0.65552
-0.03784,0.68726
-0.05005,0.71533
-0.05859,0.71289
-0.06958,0.72754
-0.07568,0.73975
-0.06958,0.72998
-0.05981,0.71167
-0.05249,0.71167
-0.05249,0.67871
-0.04517,0.66284
-0.04761,0.65552
-0.04395,0.62378
-0.04883,0.59814
-0.05249,0.57861
-0.06104,0.53955
-0.05493,0.53589
-0.03296,0.50049
-0.01343,0.49194
-0.00244,0.47485
-0.02563,0.44434
-0.05127,0.43823
-0.0708,0.40771
-0.06958,0.4126
-0.04761,0.3833
-0.03418,0.37842
-0.02808,0.36865
-0.02075,0.354
-0.02686,0.31616
-0.02197,0.3186
-0.02197,0.28809
-0.01343,0.29053
-0.0061,0.2771
-0.01709,0.26367
-0.02319,0.24902
-0.02808,0.22461
-0.02319,0.20386
-0.01465,0.19165
-0.02319,0.17944
-0.0293,0.18921
-0.04395,0.17822
-0.04517,0.15869
-0.04272,0.15991
-0.02075,0.14893
0.00244,0.15747
-0.00244,0.14282
-0.02319,0.15747
-0.05005,0.15381
-0.0708,0.14893
-0.06592,0.14038
-0.06714,0.16235
-0.06348,0.1416
-0.08423,0.14404
-0.09155,0.15747
-0.0647,0.13916
-0.03052,0.1416
-0.01831,0.12695
-0.01343,0.14404
-0.01831,0.13062
-0.00488,0.12817
0,0.10498
-0.00977,0.08545
-0.02686,0.07202
-0.02686,0.06836
-0.01831,0.06104
0.00366,0.05981
0.02441,0.0415
0.03052,0.0354
0.02686,-0.00122
0.02686,0.00732
0.0293,-0.01831
0.05127,-0.02075
0.04883,-0.03418
0.0293,-0.06348
-0.00244,-0.09033
-0.03662,-0.1001
-0.05615,-0.11963
-0.0708,-0.13184
-0.06226,-0.13916
-0.04761,-0.14526
-0.03174,-0.18311
-0.02441,-0.19531
-0.04761,-0.19409
-0.06958,-0.22339
-0.08301,-0.22583
-0.08179,-0.25391
-0.05737,-0.2478
-0.02808,-0.2832
-0.00488,-0.29053
0.0293,-0.29175
0.05615,-0.31616
0.10864,-0.3125
0.16357,-0.32471
0.19653,-0.35889
0.16846,-0.35278
0.09277,-0.3833
-0.02319,-0.38086
-0.13306,-0.38818
-0.18799,-0.41138
-0.19165,-0.40649
-0.15259,-0.4248
-0.10986,-0.448
-0.08423,-0.44067
-0.04517,-0.45532
-0.01709,-0.46021
-0.00732,-0.48828
-0.01343,-0.48584
-0.02808,-0.50903
-0.04028,-0.50659
-0.0354,-0.52979
-0.02808,-0.53589
-0.01221,-0.53589
0,-0.55054
0.0061,-0.54565
0.00366,-0.54077
0.00366,-0.55908
0.01587,-0.5603
0.02808,-0.58472
0.05493,-0.58105
0.07446,-0.58105
0.07813,-0.58716
0.07813,-0.60425
0.06958,-0.59448
0.07935,-0.60669
0.08911,-0.60303
0.08789,-0.60547
0.07935,-0.61768
0.07568,-0.60547
0.08423,-0.61523
0.09644,-0.6189
0.1062,-0.62378
0.09766,-0.60913
0.09644,-0.58594
0.09644,-0.53345
0.10986,-0.49072
0.12573,-0.45654
0.15381,-0.3772
0.15869,-0.33081
0.15259,-0.26001
0.14771,-0.1709
0.1416,-0.06104
0.1416,0.00854
0.11475,0.12207
0.08667,0.19531
0.05371,0.29541
0.03906,0.37964
0.02319,0.47852
0.00122,0.53833
-0.02808,0.60303
-0.04517,0.67749
-0.04761,0.72998
-0.03906,0.78491
-0.04028,0.82031
-0.03906,0.84961
-0.03296,0.86914
-0.03662,0.86182
-0.05127,0.88623
-0.07568,0.87036
-0.08789,0.87402
-0.07324,0.87646
-0.06592,0.84351
-0.0647,0.84595
-0.06714,0.82642
-0.06958,0.79468
-0.06348,0.78125
-0.08057,0.75562
-0.07935,0.72998
-0.06958,0.70801
-0.05371,0.68726
-0.03418,0.64697
-0.03662,0.62744
-0.03906,0.62134
-0.04639,0.61035
-0.03906,0.57373
-0.03296,0.56396
-0.0293,0.5542
-0.03906,0.52612
-0.05859,0.52612
-0.06104,0.49561
-0.06226,0.47974
-0.05981,0.47852
-0.05615,0.46509
-0.04272,0.42847
-0.03418,0.42969
-0.03906,0.40283
-0.05859,0.38086
-0.05859,0.37476
-0.04761,0.36865
-0.02563,0.35156
-0.01709,0.34546
-0.0354,0.32715
-0.05737,0.30396
-0.05737,0.30396
-0.03906,0.30273
-0.02686,0.28564
-0.05615,0.29175
-0.08301,0.28564
-0.07813,0.26733
-0.05737,0.26611
-0.02319,0.26978
-0.01465,0.26367
-0.01831,0.271
-0.0293,0.27954
-0.04883,0.27466
-0.05981,0.27954
-0.05859,0.27344
-0.04761,0.25146
-0.0293,0.25024
-0.02686,0.24292
-0.01831,0.23438
-0.02808,0.24658
-0.02197,0.2417
-0.02563,0.22949
-0.0293,0.21729
-0.02441,0.20264
-0.02808,0.17578
0,0.17822
0.01343,0.17456
0.01831,0.14038
0.01343,0.14038
0.00732,0.13184
0.01099,0.09888
-0.00244,0.08911
0.00366,0.0769
0.01099,0.07446
0.01221,0.04883
0.00977,0.04028
0,0.02319
-0.01343,-0.00732
-0.00366,-0.00732
-0.03662,-0.01587
-0.0647,-0.03296
-0.08179,-0.04883
-0.07202,-0.07568
-0.05737,-0.09277
-0.05981,-0.08789
-0.06226,-0.10498
-0.06348,-0.12329
-0.05859,-0.13062
-0.03052,-0.1416
0.00854,-0.1709
0.06226,-0.16724
0.11841,-0.20264
0.15625,-0.19897
0.17334,-0.20874
0.13306,-0.23438
0.04639,-0.26001
-0.03296,-0.25146
-0.09277,-0.28809
-0.10132,-0.29297
-0.11108,-0.29541
-0.12695,-0.30273
-0.14038,-0.33325
-0.12085,-0.33691
-0.10742,-0.35645
-0.09033,-0.37476
-0.0647,-0.37842
-0.02808,-0.39429
0.00732,-0.41748
0.00366,-0.40894
-0.01465,-0.43335
-0.0061,-0.43823
0.00854,-0.44067
0.02319,-0.45654
0.00366,-0.46509
-0.01343,-0.46753
0.00122,-0.47607
0.02686,-0.48462
0.03662,-0.5127
0.02441,-0.5127
0.00977,-0.52002
0.01831,-0.53589
0.02686,-0.53101
0.04272,-0.54077
0.05859,-0.53345
0.05859,-0.56152
0.05981,-0.55298
0.05981,-0.57373
0.06348,-0.55664
0.06958,-0.57617
0.0708,-0.56763
0.07446,-0.54565
0.08301,-0.5249
0.1001,-0.52368
0.11108,-0.46631
0.1001,-0.42969
0.08545,-0.38818
0.06226,-0.32471
0.06104,-0.23438
0.07813,-0.17944
0.09033,-0.09521
0.09644,0.01221
0.09399,0.09521
0.08789,0.20142
0.0769,0.29541
0.04639,0.37598
0.01221,0.47485
-0.01709,0.53223
-0.03174,0.62012
-0.04028,0.69336
-0.06348,0.73608
-0.08545,0.80933
-0.1001,0.83862
-0.1001,0.89233
-0.08911,0.90576
-0.09033,0.92285
-0.09766,0.9436
-0.12085,0.94849
-0.11841,0.96069
-0.09277,0.94727
-0.07202,0.93506
-0.06592,0.94116
-0.0647,0.91553
-0.0769,0.9021
-0.08301,0.88989
-0.10498,0.86548
-0.11597,0.83252
-0.11597,0.80566
-0.1123,0.79834
-0.10986,0.77759
-0.11597,0.75928
-0.10986,0.74097
-0.07813,0.71899
-0.05371,0.6958
-0.01587,0.67139
-0.00366,0.6665
-0.01831,0.64087
-0.05249,0.64087
-0.09155,0.60181
-0.09399,0.60791
-0.09644,0.59082
-0.09399,0.55298
-0.10742,0.54565
-0.1001,0.53345
-0.08789,0.51392
-0.08301,0.49316
-0.0708,0.49805
-0.06592,0.48096
-0.07324,0.47119
-0.0769,0.43945
-0.10254,0.44312
-0.09766,0.43823
-0.07813,0.41382
-0.0415,0.41626
-0.02563,0.41626
-0.03174,0.41626
-0.05493,0.39185
-0.08301,0.39063
-0.09766,0.39673
-0.09644,0.40527
-0.08789,0.40405
-0.07935,0.41382
-0.08301,0.40283
-0.08179,0.39795
-0.09033,0.41748
-0.08911,0.41504
-0.07568,0.42358
-0.06226,0.42358
-0.0415,0.40771
-0.03784,0.40039
-0.0415,0.4187
-0.04272,0.41382
-0.04517,0.4126
-0.04028,0.39673
-0.03784,0.41016
-0.0415,0.41504
-0.02441,0.39795
-0.00244,0.41992
0.01465,0.4248
0.02197,0.4187
0.01343,0.45044
0.00977,0.46387
0.02441,0.47607
0.04517,0.48096
0.05005,0.48828
0.02441,0.46875
-0.02319,0.44067
-0.07568,0.43579
-0.1062,0.41748
-0.10132,0.39429
-0.09399,0.35767
-0.0769,0.34912
-0.07202,0.31738
-0.07202,0.29785
-0.06836,0.29175
-0.0769,0.26855
-0.0647,0.23315
-0.03418,0.21484
0.0061,0.19409
0.05005,0.19165
0.08545,0.16846
0.12939,0.1416
0.17578,0.11719
0.21851,0.10254
0.20508,0.09766
0.12451,0.07813
0.00366,0.05371
-0.12573,0.0354
-0.20874,0.01709
-0.21729,-0.00122
-0.16724,0.0061
-0.10376,-0.03296
-0.07568,-0.04761
-0.07568,-0.0647
-0.0769,-0.05981
-0.06714,-0.08911
-0.05737,-0.08667
-0.03174,-0.12329
-0.01831,-0.13916
0.01221,-0.14404
0.01587,-0.1416
-0.00366,-0.17456
-0.01709,-0.18066
-0.02563,-0.19775
0.00366,-0.19409
0.01099,-0.22461
0.02197,-0.23682
0.01221,-0.22705
0.0354,-0.23926
0.05981,-0.26855
0.06836,-0.26611
0.05493,-0.271
0.0354,-0.28564
0.03662,-0.30884
0.05615,-0.31372
0.07324,-0.31006
0.09033,-0.31494
0.08545,-0.33691
0.08545,-0.33813
0.09521,-0.33691
0.11475,-0.33447
0.1416,-0.32715
0.14771,-0.31982
0.14038,-0.29785
0.12817,-0.23926
0.10986,-0.20142
0.1123,-0.15015
0.11597,-0.07813
0.11841,-0.01709
0.12817,0.06104
0.12573,0.14282
0.12207,0.21118
0.11108,0.29175
0.09766,0.37354
0.08423,0.45532
0.06592,0.55908
0.05005,0.62866
0.03174,0.68359
0.00488,0.75073
-0.01221,0.82642
-0.04028,0.85571
-0.05859,0.896
-0.05737,0.92773
-0.05371,0.94238
-0.05005,0.96436
-0.05981,0.98022
-0.06714,0.98511
-0.06226,0.98511
-0.06226,0.979
-0.0647,0.96313
-0.07324,0.93506
-0.07202,0.9375
-0.05737,0.91309
-0.05371,0.90332
-0.04028,0.88135
-0.05737,0.88257
-0.07202,0.85205
-0.08789,0.8313
-0.08423,0.84106
-0.05371,0.80811
-0.04761,0.81665
-0.04639,0.80811
-0.06104,0.78735
-0.06348,0.78857
-0.06958,0.79224
-0.07568,0.80811
-0.07935,0.81543
-0.07813,0.81665
-0.05127,0.81177
-0.02686,0.79834
-0.01465,0.78735
-0.02319,0.77759
-0.05249,0.7666
-0.07324,0.76904
-0.07813,0.73608
-0.07202,0.71533
-0.05493,0.71655
-0.04272,0.67749
-0.05493,0.6604
-0.0647,0.6311
-0.06592,0.59204
-0.0415,0.54932
-0.03174,0.52246
-0.0415,0.4834
-0.06104,0.43091
-0.07324,0.41016
-0.06836,0.35767
-0.04517,0.34546
-0.02563,0.30762
-0.02319,0.2832
-0.04639,0.26733
-0.06714,0.23438
-0.05127,0.21729
-0.02197,0.20508
-0.01831,0.19653
-0.03662,0.20508
-0.05615,0.18921
-0.06592,0.17822
-0.06958,0.16235
-0.06958,0.15869
-0.08423,0.14526
-0.06592,0.10986
-0.0415,0.10254
0.01343,0.07935
0.05981,0.08911
0.0769,0.06836
0.06958,0.05615
0.0354,0.02197
0.01465,0.02686
0.01587,-0.00732
0.02563,-0.01709
0.01343,-0.02197
-0.05859,-0.06226
-0.15015,-0.08057
-0.16113,-0.07568
-0.14282,-0.09277
-0.03784,-0.11475
0.02319,-0.14526
0.0293,-0.15137
0.01099,-0.16724
-0.04028,-0.18311
-0.04639,-0.21484
-0.03784,-0.22949
-0.02441,-0.24414
-0.04028,-0.24536
-0.0769,-0.25757
-0.10986,-0.271
-0.12451,-0.29663
-0.08301,-0.30029
0.02319,-0.31006
0.13672,-0.32349
0.17334,-0.35278
0.09644,-0.37354
-0.01465,-0.36621
-0.00977,-0.3833
0.00122,-0.40161
0.02441,-0.448
-0.03784,-0.45044
-0.09033,-0.48706
-0.08301,-0.50537
-0.09521,-0.53223
-0.10864,-0.55054
-0.13184,-0.57861
-0.11841,-0.59814
-0.0647,-0.60181
0.01221,-0.62256
0.06592,-0.6604
0.07568,-0.6543
0.05127,-0.6897
0.04028,-0.69702
0.00732,-0.70068
0.0061,-0.6958
0.00854,-0.71289
-0.02686,-0.72998
-0.04395,-0.70923
-0.02563,-0.72998
0.03052,-0.74463
0.1001,-0.74341
0.0708,-0.76904
0.04761,-0.75806
0.06104,-0.7666
0.1001,-0.78735
0.13672,-0.78491
0.12817,-0.80078
0.10742,-0.82886
0.06226,-0.81787
0.01465,-0.84717
-0.02319,-0.82642
-0.04761,-0.84961
0.0293,-0.84595
0.12573,-0.8252
0.20264,-0.80688
0.21851,-0.78735
0.16724,-0.73975
0.15625,-0.68604
0.16113,-0.64209
0.16357,-0.55542
0.12939,-0.48462
0.07568,-0.38696
0.02563,-0.32104
0.02319,-0.2063
0.07446,-0.13062
0.12085,-0.04028
0.12695,0.05249
0.08057,0.16968
-0.00488,0.2478
-0.11475,0.33691
-0.15503,0.39673
-0.1416,0.46875
-0.04517,0.53589
0.00977,0.59082
0.00122,0.6543
-0.04395,0.69092
-0.10498,0.72632
-0.1416,0.75928
-0.14771,0.77026
-0.13306,0.77026
-0.10132,0.79956
-0.10742,0.78247
-0.08911,0.80078
-0.08911,0.78369
-0.06714,0.76904
-0.05737,0.76782
-0.0708,0.75439
-0.10254,0.73364
-0.12207,0.70068
-0.11719,0.68848
-0.06836,0.67139
-0.06104,0.65918
-0.07568,0.65308
-0.1062,0.65063
-0.11597,0.64575
-0.09155,0.61768
-0.07446,0.60669
-0.06714,0.5957
-0.1001,0.59692
-0.12695,0.57861
-0.1123,0.57007
-0.07813,0.53833
-0.04761,0.54077
-0.0293,0.5249
-0.03662,0.50781
-0.05859,0.48218
-0.10376,0.45776
-0.13794,0.45898
-0.13916,0.42847
-0.09888,0.43213
-0.0647,0.4187
-0.06714,0.40161
-0.06836,0.36987
-0.08789,0.37598
-0.09644,0.35156
-0.1001,0.33691
-0.12207,0.3479
-0.14404,0.33691
-0.17456,0.31128
-0.15137,0.32227
-0.07202,0.31616
0.00244,0.3186
0.01587,0.29541
-0.0293,0.30518
-0.07813,0.31128
-0.08179,0.29419
-0.06714,0.28076
-0.07446,0.29419
-0.08179,0.28687
-0.07446,0.27222
-0.06836,0.26367
-0.06836,0.26855
-0.05981,0.24536
-0.06348,0.25513
-0.05615,0.2478
-0.04517,0.21362
-0.04517,0.21729
-0.0293,0.18677
-0.01587,0.17578
-0.00244,0.16113
0.00854,0.15747
-0.00854,0.14282
-0.02563,0.12451
-0.04517,0.10376
-0.05005,0.07202
-0.0647,0.05005
-0.09155,0.01953
-0.1123,0.01343
-0.13184,0
-0.10864,-0.0415
-0.1001,-0.05371
-0.07324,-0.06104
-0.05981,-0.09888
-0.05249,-0.11719
-0.03906,-0.11597
-0.00732,-0.14282
0.00732,-0.1709
0.04028,-0.18188
0.07202,-0.19775
0.14893,-0.22949
0.19409,-0.24658
0.13916,-0.25269
0.00854,-0.28198
-0.13672,-0.28076
-0.2002,-0.30029
-0.18555,-0.31128
-0.15991,-0.33936
-0.1123,-0.34546
-0.09033,-0.36011
-0.06714,-0.38452
-0.06226,-0.3894
-0.05005,-0.42603
-0.03784,-0.43335
-0.01587,-0.4541
-0.00122,-0.46631
0,-0.4541
-0.0061,-0.48584
-0.01465,-0.47852
-0.01709,-0.49927
-0.00122,-0.52124
0.01221,-0.51025
0.02075,-0.5249
0.01587,-0.52368
-0.00854,-0.55786
-0.03418,-0.56396
-0.01099,-0.54932
0.02686,-0.57983
0.07202,-0.57861
0.07813,-0.59082
0.07446,-0.58716
0.05615,-0.59204
0.04761,-0.61035
0.05981,-0.60547
0.07813,-0.64331
0.10986,-0.64331
0.13428,-0.63599
0.11597,-0.64331
0.11841,-0.67139
0.10864,-0.64209
0.11597,-0.63599
0.11719,-0.61279
0.10132,-0.56152
0.09155,-0.52612
0.11597,-0.46997
0.15137,-0.39307
0.18799,-0.32837
0.17944,-0.24536
0.14648,-0.15259
0.09155,-0.06958
0.06714,0.01953
0.04639,0.08423
0.0354,0.16846
0.01953,0.25879
0.01343,0.33203
0.00122,0.41138
-0.02319,0.45776
-0.06958,0.50537
-0.07202,0.55542
-0.06226,0.60547
-0.03052,0.63232
-0.02808,0.66772
-0.05005,0.68481
-0.06104,0.69458
-0.06958,0.69946
-0.07202,0.69946
-0.07568,0.69946
-0.07446,0.69336
-0.06592,0.69702
-0.06104,0.69336
-0.0647,0.66162
-0.0769,0.65674
-0.08301,0.65552
-0.0769,0.63721
-0.0708,0.62134
-0.06592,0.60547
-0.05371,0.57983
-0.04272,0.55786
-0.03052,0.55054
-0.04028,0.54932
-0.03662,0.54688
-0.03784,0.54321
-0.04395,0.53589
-0.05371,0.52734
-0.06958,0.50903
-0.08545,0.49194
-0.07813,0.48462
-0.05859,0.49194
-0.03418,0.45776
-0.01587,0.45898
-0.00366,0.448
-0.01709,0.41626
-0.0293,0.40894
-0.04395,0.38086
-0.04517,0.36377
-0.04761,0.34912
-0.03174,0.35522
-0.0293,0.31982
-0.02319,0.30273
-0.02686,0.28931
-0.0293,0.2771
-0.04028,0.27466
-0.05371,0.27588
-0.0647,0.25513
-0.07324,0.24048
-0.06348,0.25024
-0.02686,0.24536
-0.00488,0.23315
0.00977,0.22095
0,0.2124
0.00122,0.21118
-0.01099,0.20752
-0.02197,0.20264
-0.00977,0.20508
0.00854,0.21484
0.01831,0.2063
0.02686,0.18433
0.02075,0.18311
0.00977,0.18677
-0.00244,0.16724
-0.01221,0.15015
0.00732,0.13306
0.03418,0.12451
0.06836,0.11719
0.06104,0.09399
0.02563,0.09521
-0.00122,0.08301
-0.01587,0.04639
-0.00122,0.04639
0.00366,0.02319
-0.00732,-0.00977
-0.04028,-0.0061
-0.06714,-0.03052
-0.0708,-0.05493
-0.06836,-0.07568
-0.04761,-0.08545
-0.02075,-0.12085
-0.01221,-0.1416
-0.01221,-0.15015
-0.00122,-0.18555
0.0415,-0.18555
0.11719,-0.22339
0.17944,-0.22461
0.22339,-0.26245
0.22827,-0.26611
0.2002,-0.29663
0.10864,-0.29297
-0.03052,-0.33325
-0.14648,-0.32349
-0.20752,-0.36499
-0.18066,-0.354
-0.12329,-0.37842
-0.07202,-0.39795
-0.01221,-0.40405
0.01709,-0.43457
0.02808,-0.42969
0.01343,-0.43701
0.00977,-0.45776
0.01831,-0.47363
0.02197,-0.49683
0.01465,-0.51147
0.02197,-0.52124
0.02808,-0.53101
0.02197,-0.53833
0.01465,-0.55054
0.01709,-0.5542
0.03052,-0.56885
0.04395,-0.56152
0.04761,-0.58472
0.06226,-0.58105
0.09399,-0.61035
0.11963,-0.60059
0.10864,-0.60791
0.09155,-0.63599
0.0769,-0.62866
0.07935,-0.64575
0.09033,-0.64453
0.09277,-0.64941
0.10864,-0.66284
0.11108,-0.65918
0.12451,-0.67261
0.12085,-0.63477
0.12817,-0.625
0.1416,-0.58594
0.14404,-0.56763
0.1416,-0.49561
0.14404,-0.46021
0.15747,-0.38818
0.16968,-0.3125
0.17334,-0.22705
0.16357,-0.16357
0.13672,-0.06348
0.10986,0.01953
0.10132,0.08545
0.1062,0.17334
0.09644,0.2417
0.08423,0.31738
0.03662,0.37354
-0.00366,0.43457
-0.03174,0.47607
-0.04883,0.54443
-0.05127,0.55786
-0.06226,0.61035
-0.07813,0.61157
-0.08667,0.64453
-0.08911,0.63843
-0.07324,0.64819
-0.06714,0.64453
-0.04761,0.63843
-0.04517,0.62744
-0.03662,0.62012
-0.04517,0.59204
-0.06592,0.59692
-0.07202,0.57617
-0.07324,0.54443
-0.06592,0.52368
-0.0647,0.50537
-0.05371,0.48828
-0.03174,0.47607
-0.0293,0.47119
-0.03052,0.46509
-0.04883,0.46021
-0.0708,0.44678
-0.07813,0.43213
-0.08057,0.41748
-0.0647,0.40405
-0.04517,0.39429
-0.04883,0.39795
-0.05005,0.39307
-0.0769,0.36377
-0.07446,0.36987
-0.04883,0.35278
-0.02319,0.32837
-0.01709,0.32349
-0.03052,0.30029
-0.05005,0.27954
-0.04395,0.25024
-0.05493,0.23682
-0.05127,0.2417
-0.05981,0.20142
-0.04761,0.20142
-0.02808,0.18311
-0.01099,0.15747
-0.00732,0.15259
-0.01221,0.14282
-0.04639,0.12451
-0.04517,0.12085
-0.04395,0.12329
-0.02563,0.09766
-0.04028,0.10376
-0.03418,0.10498
-0.02075,0.08179
-0.00977,0.09277
-0.01343,0.09399
-0.03662,0.0769
-0.04639,0.06592
-0.03906,0.06104
-0.03052,0.06348
-0.0061,0.06958
0.01343,0.04028
0.02686,0.05005
0.02197,0.03784
0.00732,0.01221
0.00854,0.01343
0.01709,-0.00977
0.03662,-0.00244
0.05615,-0.03418
0.06104,-0.03906
0.05127,-0.06836
0.0293,-0.06958
0.00732,-0.09155
-0.00977,-0.11841
-0.02808,-0.13672
-0.04883,-0.16846
-0.03784,-0.16724
-0.03296,-0.18921
-0.02563,-0.20874
-0.03662,-0.23315
-0.04028,-0.25513
-0.04883,-0.28442
-0.0415,-0.3064
-0.03174,-0.30884
-0.0293,-0.32715
-0.0061,-0.36499
-0.00977,-0.36255
0.00122,-0.39917
0.04272,-0.41748
0.06348,-0.41992
0.10498,-0.43091
0.15137,-0.45166
0.20264,-0.47119
0.22461,-0.4834
0.16235,-0.4895
0.03662,-0.5188
-0.09888,-0.53101
-0.16846,-0.55664
-0.17212,-0.54565
-0.11719,-0.58105
-0.0708,-0.59814
-0.04395,-0.60791
-0.02686,-0.59937
-0.01953,-0.61279
-0.02319,-0.62744
-0.00854,-0.66162
-0.00244,-0.67383
-0.00244,-0.67749
0.00488,-0.69946
0.00244,-0.70801
0.0061,-0.69824
0.00732,-0.71533
0.02197,-0.74097
0.02686,-0.72754
0.02441,-0.75806
0.02563,-0.75562
0.0293,-0.78491
0.02686,-0.78125
0.0354,-0.78735
0.04028,-0.80688
0.06592,-0.81543
0.08179,-0.79956
0.09644,-0.81909
0.11108,-0.82764
0.1355,-0.82886
0.13916,-0.83252
0.13306,-0.84106
0.11353,-0.86182
0.10864,-0.85449
0.11597,-0.85205
0.12939,-0.81909
0.1355,-0.81909
0.14526,-0.78979
0.15259,-0.75073
0.16113,-0.67871
0.15625,-0.63232
0.1416,-0.57617
0.13306,-0.50903
0.14526,-0.41504
0.15869,-0.36255
0.16235,-0.27222
0.12817,-0.18555
0.09155,-0.12695
0.07813,-0.03052
0.07324,0.03784
0.06104,0.10742
0.02563,0.14282
-0.00122,0.2002
-0.00488,0.26367
-0.00122,0.29053
-0.01953,0.33447
-0.05005,0.35645
-0.06714,0.36011
-0.08179,0.39429
-0.10132,0.38696
-0.10742,0.3833
-0.10376,0.3833
-0.08545,0.3833
-0.07202,0.3894
-0.07202,0.38452
-0.07446,0.36011
-0.0769,0.35645
-0.08423,0.32959
-0.08423,0.32959
-0.06958,0.30884
-0.04761,0.30762
-0.0415,0.29053
-0.04883,0.26978
-0.05127,0.271
-0.05249,0.26489
-0.04761,0.25635
-0.05737,0.24536
-0.0708,0.23926
-0.08057,0.22461
-0.08545,0.22339
-0.08545,0.21118
-0.09521,0.21729
-0.08789,0.21118
-0.06958,0.20874
-0.05615,0.18433
-0.04517,0.19165
-0.04272,0.17578
-0.03662,0.14404
-0.03418,0.14526
-0.06226,0.11963
-0.08057,0.10864
-0.08057,0.1001
-0.07202,0.07446
-0.05127,0.08301
-0.0708,0.05249
-0.07813,0.05249
-0.0769,0.03662
-0.05615,0.0354
-0.04272,0.02563
-0.05615,0.00977
-0.07813,0.01587
-0.08423,0
-0.08789,-0.01709
-0.08667,-0.0061
-0.08789,-0.00366
-0.06836,-0.01221
-0.04517,-0.01099
-0.03052,-0.03174
-0.02686,-0.02075
-0.04028,-0.03174
-0.04639,-0.0415
-0.04639,-0.04028
-0.05371,-0.04883
-0.05615,-0.05859
-0.0708,-0.07202
-0.04761,-0.07568
-0.0293,-0.1123
-0.01709,-0.11841
-0.02319,-0.13428
-0.03296,-0.12451
-0.03906,-0.13428
-0.03906,-0.16724
-0.04028,-0.1709
-0.02563,-0.18555
-0.02441,-0.20752
-0.01099,-0.21851
-0.02441,-0.22583
-0.03052,-0.23926
-0.0293,-0.2771
-0.02197,-0.27954
-0.02197,-0.30151
-0.0293,-0.32837
-0.03906,-0.32715
-0.05371,-0.36743
-0.07202,-0.36865
-0.09033,-0.38086
-0.10132,-0.42358
-0.08911,-0.43823
-0.08301,-0.43213
-0.06104,-0.45654
-0.01953,-0.46265
0.02197,-0.48706
0.06104,-0.50415
0.09155,-0.53589
0.14038,-0.54321
0.17944,-0.53711
0.17822,-0.54932
0.1001,-0.56519
-0.02563,-0.5835
-0.1355,-0.60425
-0.17456,-0.59692
-0.14282,-0.61768
-0.09644,-0.63721
-0.0708,-0.63599
-0.06836,-0.64209
-0.06104,-0.67139
-0.04761,-0.6604
-0.03296,-0.66895
-0.02686,-0.69336
-0.02563,-0.68237
-0.01465,-0.68848
0.00122,-0.70068
0.01221,-0.72876
0.02075,-0.71533
0.01465,-0.72144
0.01465,-0.74829
0.01953,-0.73486
0.03296,-0.73975
0.04028,-0.75562
0.03784,-0.77515
0.02441,-0.77026
0.02808,-0.79224
0.03906,-0.79102
0.05615,-0.79102
0.05859,-0.78369
0.06104,-0.78979
0.06592,-0.82153
0.07568,-0.802
0.08423,-0.81543
0.08423,-0.81055
0.1001,-0.82031
0.11963,-0.80444
0.13184,-0.81543
0.1355,-0.79468
0.12573,-0.76904
0.11841,-0.72998
0.12207,-0.68726
0.13306,-0.61768
0.15015,-0.56519
0.14404,-0.48828
0.13306,-0.41626
0.13184,-0.34302
0.12695,-0.26733
0.12817,-0.18921
0.09521,-0.13428
0.07568,-0.06226
0.06226,0.02319
0.05615,0.0769
0.02686,0.15137
-0.00977,0.20386
-0.03906,0.24536
-0.05005,0.28687
-0.06226,0.32593
-0.06714,0.33936
-0.07568,0.36499
-0.08057,0.37598
-0.09033,0.37598
-0.09521,0.39673
-0.09277,0.3833
-0.08911,0.38574
-0.08789,0.38086
-0.08423,0.36499
-0.08667,0.34668
-0.0769,0.34668
-0.0708,0.3186
-0.04883,0.3186
-0.03662,0.30151
-0.02563,0.26855
-0.02808,0.26855
-0.03662,0.26123
-0.03784,0.24902
-0.05371,0.23682
-0.06836,0.21729
-0.0647,0.22583
-0.05981,0.20264
-0.04639,0.2124
-0.05981,0.2063
-0.06714,0.18555
-0.05859,0.18555
-0.06958,0.16357
-0.06714,0.16846
-0.06348,0.15259
-0.05127,0.14893
-0.04028,0.13184
-0.04395,0.11841
-0.03662,0.10864
-0.04761,0.09277
-0.05127,0.05615
-0.05127,0.05615
-0.04883,0.03052
-0.03052,0.01831
-0.01587,0.00122
-0.01831,0.00854
-0.01709,0.00244
-0.04028,-0.02319
-0.06348,-0.01465
-0.07324,-0.02686
-0.07324,-0.03174
-0.05859,-0.05005
-0.05615,-0.04272
-0.05493,-0.05859
-0.04761,-0.05981
-0.04272,-0.04639
-0.04517,-0.05127
-0.04639,-0.07324
-0.0354,-0.04761
-0.04028,-0.05737
-0.03418,-0.07324
-0.02808,-0.06104
-0.00732,-0.08667
-0.00244,-0.08423
-0.02075,-0.08301
-0.03784,-0.1123
-0.05127,-0.11353
-0.03784,-0.11963
-0.0061,-0.14404
0.02075,-0.14648
0.05127,-0.17578
0.05737,-0.18921
0.04272,-0.18311
0.01709,-0.19897
0.00366,-0.21484
0.00122,-0.25269
0.00488,-0.25146
0.00732,-0.26855
0.0061,-0.30518
-0.00244,-0.31372
-0.01953,-0.34424
-0.02319,-0.34424
-0.03418,-0.37354
-0.01465,-0.39551
-0.01709,-0.39551
-0.02319,-0.42725
-0.02197,-0.43213
-0.02197,-0.44556
-0.03296,-0.46997
-0.05371,-0.48096
-0.06836,-0.50171
-0.05371,-0.50537
-0.02319,-0.52124
0.00977,-0.55054
0.05981,-0.5542
0.11108,-0.56641
0.18188,-0.60791
0.21973,-0.59937
0.22583,-0.61035
0.15869,-0.6311
0.0415,-0.65308
-0.08057,-0.65796
-0.15259,-0.67017
-0.16113,-0.6665
-0.12329,-0.6897
-0.07935,-0.68726
-0.02441,-0.70679
0.0061,-0.71411
0.01099,-0.71777
-0.00977,-0.7373
-0.02563,-0.72998
-0.02075,-0.73608
-0.0061,-0.74219
0.01099,-0.76416
0.00854,-0.76782
0.0061,-0.75928
0.01587,-0.78979
0.02197,-0.79712
0.0415,-0.77759
0.04028,-0.80811
0.04639,-0.80322
0.04883,-0.81787
0.05127,-0.80566
0.06104,-0.802
0.06226,-0.8252
0.07202,-0.81177
0.08545,-0.81665
0.09521,-0.84106
0.1001,-0.82764
0.09521,-0.85205
0.09399,-0.85938
0.10254,-0.83496
0.11597,-0.84717
0.12695,-0.8374
0.12329,-0.84229
0.10742,-0.81177
0.11108,-0.77026
0.11353,-0.73975
0.13306,-0.6958
0.14404,-0.65918
0.14893,-0.60669
0.16357,-0.51514
0.1709,-0.45166
0.18921,-0.38452
0.19409,-0.29541
0.14526,-0.21729
0.08911,-0.14404
0.0415,-0.07446
0.04883,0.00488
0.0708,0.06104
0.06714,0.12329
0.03418,0.18799
0.00244,0.22461
-0.02197,0.25757
-0.03052,0.30151
-0.03174,0.31982
-0.0354,0.33936
-0.05737,0.37964
-0.06836,0.37231
-0.0708,0.37964
-0.04639,0.38086
-0.0354,0.38208
-0.04883,0.39795
-0.06958,0.39307
-0.06592,0.38574
-0.0708,0.37109
-0.06348,0.35889
-0.06836,0.34668
-0.06226,0.34912
-0.05493,0.33936
-0.05493,0.32593
-0.06226,0.3125
-0.08789,0.29785
-0.07935,0.30762
-0.05615,0.30029
-0.01587,0.27466
-0.0061,0.27588
-0.02319,0.28442
-0.04272,0.28442
-0.04028,0.27832
-0.02808,0.25391
-0.01953,0.2478
-0.02441,0.26489
-0.0293,0.2478
-0.0354,0.22705
-0.04761,0.21362
-0.04883,0.22583
-0.05493,0.20508
-0.05249,0.17822
-0.05615,0.18066
-0.05737,0.16602
-0.04639,0.16357
-0.0354,0.13306
-0.02197,0.13794
-0.01587,0.10742
-0.01709,0.10986
-0.01465,0.11475
-0.02075,0.08301
-0.0293,0.08667
-0.03906,0.0708
-0.04761,0.08057
-0.06348,0.07568
-0.08301,0.06958
-0.07202,0.07568
-0.06226,0.06104
-0.05005,0.04517
-0.04395,0.05493
-0.04517,0.04028
-0.03784,0.05249
-0.03418,0.03662
-0.02563,0.02563
-0.01221,0.02075
0.00122,0.03784
0.00854,0.00854
-0.0061,0.00244
-0.02563,0.00366
-0.03662,-0.02075
-0.03906,-0.02441
-0.03052,-0.03906
-0.02808,-0.04028
-0.02686,-0.06226
-0.02808,-0.09277
-0.01831,-0.09277
0.00244,-0.1123
0.02197,-0.14282
0.01953,-0.15869
0.0061,-0.15625
-0.00366,-0.18799
0.00366,-0.18921
0.01221,-0.19775
0.00488,-0.23804
-0.01221,-0.25391
-0.04028,-0.26611
-0.05127,-0.27588
-0.04761,-0.30029
-0.03784,-0.29541
-0.03418,-0.32104
-0.0415,-0.33569
-0.03662,-0.33691
-0.02075,-0.35278
-0.00488,-0.39185
-0.01709,-0.39917
-0.05249,-0.41382
-0.07446,-0.42725
-0.06226,-0.42603
-0.02319,-0.43823
0.04028,-0.46631
0.1001,-0.46875
0.18677,-0.46875
0.24048,-0.49561
0.23682,-0.50903
0.16724,-0.52368
0.02563,-0.52612
-0.09888,-0.53711
-0.18677,-0.56274
-0.19043,-0.54932
-0.12817,-0.55786
-0.08057,-0.5835
-0.0354,-0.5835
-0.03906,-0.59204
-0.03784,-0.59692
-0.03296,-0.62256
-0.02319,-0.60669
-0.00977,-0.63599
-0.01587,-0.6189
-0.02197,-0.62744
-0.01343,-0.65552
-0.00854,-0.65308
0.01343,-0.66772
0.02808,-0.67139
0.03296,-0.67749
0.0354,-0.67139
0.02197,-0.68726
0.02197,-0.6897
0.03662,-0.70435
0.04517,-0.69214
0.05737,-0.71655
0.06348,-0.71899
0.05981,-0.70679
0.06226,-0.73242
0.07202,-0.71655
0.07813,-0.74829
0.08423,-0.72754
0.08179,-0.74951
0.09277,-0.72998
0.09277,-0.7251
0.10376,-0.72021
0.11597,-0.69946
0.13916,-0.68481
0.15137,-0.65796
0.15137,-0.61157
0.15625,-0.54321
0.15015,-0.49561
0.15869,-0.42969
0.15747,-0.36133
0.14771,-0.28442
0.14038,-0.18311
0.11108,-0.1062
0.09766,-0.03296
0.09277,0.05493
0.09521,0.11108
0.08423,0.20386
0.05615,0.271
0.02563,0.32593
-0.00122,0.36133
-0.02441,0.43457
-0.04639,0.45776
-0.06104,0.49072
-0.06104,0.5127
-0.05737,0.55298
-0.07568,0.5542
-0.07935,0.56274
-0.09033,0.56396
-0.07813,0.57495
-0.08667,0.56763
-0.10254,0.58716
-0.09399,0.57983
-0.08423,0.5542
-0.08301,0.57007
-0.07568,0.5603
-0.07324,0.53467
-0.05493,0.53223
-0.05859,0.53711
-0.0708,0.51392
-0.08301,0.52734
-0.08057,0.52368
-0.08057,0.50415
-0.07568,0.51636
-0.07202,0.50049
-0.05127,0.49805
-0.03174,0.50537
-0.02319,0.49072
-0.04028,0.50293
-0.05371,0.48828
-0.07324,0.47852
-0.07446,0.46509
-0.06714,0.47852
-0.06226,0.44312
-0.05859,0.4541
-0.05859,0.43335
-0.05493,0.40283
-0.05371,0.39429
-0.05493,0.38086
-0.06348,0.38086
-0.07324,0.36011
-0.06592,0.35156
-0.04028,0.31372
-0.02563,0.30029
-0.0293,0.3064
-0.03784,0.27954
-0.0293,0.27466
-0.03296,0.25757
-0.06104,0.25024
-0.08789,0.26733
-0.10498,0.25269
-0.09521,0.23682
-0.06592,0.23682
-0.06226,0.23193
-0.04395,0.22583
-0.05127,0.23071
-0.0415,0.22461
-0.03174,0.21362
-0.0293,0.20874
-0.03052,0.22095
-0.0415,0.19653
-0.05249,0.19775
-0.04272,0.18066
-0.03662,0.18311
-0.01709,0.17822
-0.01831,0.16846
-0.04517,0.14771
-0.06104,0.14404
-0.07935,0.11108
-0.04517,0.10864
-0.01953,0.10376
0.00122,0.08667
0.00244,0.05859
0.00366,0.04883
0.01343,0.01831
0.02197,0.01099
0.02441,-0.01465
0.02197,-0.0293
0.01099,-0.02319
0.01221,-0.05981
0.0061,-0.07568
-0.01221,-0.07324
-0.02441,-0.08789
-0.05127,-0.10864
-0.0708,-0.12451
-0.07935,-0.16113
-0.07568,-0.16357
-0.06714,-0.18433
-0.05981,-0.2063
-0.04517,-0.2063
-0.04028,-0.22217
-0.05127,-0.24902
-0.06226,-0.25024
-0.06714,-0.26245
-0.03784,-0.29663
0.00977,-0.31006
0.05493,-0.31738
0.09766,-0.32227
0.13794,-0.33447
0.18188,-0.36499
0.17578,-0.36377
0.10254,-0.36865
0,-0.38818
-0.10376,-0.38574
-0.15259,-0.39185
-0.18066,-0.42114
-0.17822,-0.42114
-0.14893,-0.44434
-0.11108,-0.45044
-0.05737,-0.44312
-0.02563,-0.47241
-0.01465,-0.48584
0.00977,-0.49438
0.0061,-0.49072
0.01709,-0.50781
0.01587,-0.51147
0.01343,-0.52124
0.00854,-0.5127
-0.00732,-0.52246
-0.01343,-0.52612
-0.00488,-0.55298
0.00122,-0.54077
0.01343,-0.5603
0.00732,-0.57739
0.02197,-0.56519
0.04028,-0.57251
0.05737,-0.58716
0.06714,-0.60059
0.05493,-0.59204
0.0708,-0.59326
0.07202,-0.62134
0.07813,-0.60425
0.08179,-0.61279
0.08423,-0.62988
0.09521,-0.63721
0.10986,-0.63843
0.11108,-0.6311
0.11963,-0.60425
0.12207,-0.57617
0.12207,-0.56519
0.12695,-0.51025
0.13184,-0.46875
0.15381,-0.40161
0.15381,-0.33936
0.16602,-0.29053
0.14648,-0.19775
0.12329,-0.12329
0.09766,-0.02563
0.09155,0.05249
0.09766,0.14038
0.09399,0.20264
0.08789,0.28442
0.06348,0.34912
0.03662,0.42358
0.01343,0.4834
-0.00366,0.53711
-0.01831,0.57861
-0.03662,0.61768
-0.05859,0.65552
-0.07568,0.68359
-0.10132,0.69458
-0.10986,0.70679
-0.11353,0.73853
-0.1062,0.72754
-0.10376,0.7312
-0.10132,0.71411
-0.08423,0.70923
-0.0708,0.69946
-0.06714,0.70068
-0.06958,0.68848
-0.07324,0.6665
-0.06836,0.6665
-0.06836,0.66284
-0.05981,0.65308
-0.05493,0.63965
-0.04639,0.63843
-0.06714,0.62012
-0.07568,0.62134
-0.10498,0.60059
-0.09766,0.60547
-0.08545,0.5896
-0.06958,0.58472
-0.06714,0.59937
-0.06714,0.58838
-0.07202,0.57983
-0.05615,0.55298
-0.04395,0.55786
-0.02808,0.54077
-0.0415,0.52368
-0.05371,0.50049
-0.07446,0.49561
-0.07568,0.4834
-0.04883,0.4541
-0.04883,0.43701
-0.06104,0.41504
-0.06592,0.39673
-0.07568,0.40894
-0.0708,0.39673
-0.0708,0.36987
-0.06836,0.37231
-0.06226,0.35522
-0.05249,0.36255
-0.03174,0.34546
-0.03662,0.354
-0.04761,0.34912
-0.06348,0.33691
-0.06592,0.34546
-0.05615,0.33203
-0.07324,0.3418
-0.06836,0.3418
-0.0708,0.3186
-0.05493,0.32715
-0.05249,0.31006
-0.04761,0.30518
-0.05249,0.31738
-0.04883,0.31616
-0.06104,0.3064
-0.07446,0.29419
-0.07813,0.26978
-0.0708,0.26489
-0.05981,0.25146
-0.04639,0.23438
-0.0415,0.24536
-0.03052,0.22949
-0.01465,0.19775
-0.00366,0.20142
0.00488,0.17212
0.01953,0.14771
0.03418,0.13794
0.05127,0.11475
0.0415,0.1123
0.01587,0.08667
-0.00854,0.08423
-0.00854,0.04517
-0.00488,0.04028
-0.01099,0.01709
-0.02686,-0.00732
-0.03418,-0.02563
-0.03662,-0.03906
-0.0293,-0.04028
-0.03052,-0.07813
-0.04272,-0.07446
-0.04395,-0.08911
-0.05127,-0.10254
-0.04395,-0.13794
-0.03662,-0.13306
-0.0354,-0.17212
-0.0415,-0.17944
-0.05737,-0.18677
-0.04639,-0.2063
-0.01953,-0.22095
0.01221,-0.24536
0.05371,-0.23315
0.11353,-0.25879
0.19897,-0.28564
0.22339,-0.28687
0.19653,-0.31128
0.10254,-0.30151
-0.02197,-0.33936
-0.11597,-0.32837
-0.17822,-0.34058
-0.17578,-0.35522
-0.13062,-0.3894
-0.09888,-0.38452
-0.06226,-0.41138
-0.03906,-0.39795
-0.02319,-0.40894
-0.01343,-0.44067
-0.00732,-0.45288
0.01099,-0.45166
0.0061,-0.46875
-0.00122,-0.45654
-0.00366,-0.47607
-0.00244,-0.48584
0.02197,-0.47852
0.03174,-0.48706
0.04028,-0.50049
0.03662,-0.50049
0.02686,-0.51758
0.02808,-0.54199
0.03052,-0.54932
0.0293,-0.5542
0.05127,-0.5603
0.06226,-0.5603
0.07446,-0.56885
0.08179,-0.57983
0.07446,-0.5896
0.07324,-0.58105
0.06104,-0.60181
0.07324,-0.58594
0.09644,-0.59448
0.12207,-0.59692
0.13672,-0.56885
0.12329,-0.56152
0.12085,-0.53223
0.12207,-0.51514
0.12695,-0.44434
0.14526,-0.41626
0.1416,-0.33936
0.14771,-0.26978
0.14648,-0.18066
0.13306,-0.10864
0.12817,-0.03418
0.11597,0.05127
0.1123,0.14404
0.10254,0.23438
0.0708,0.32349
0.04883,0.39673
0.02808,0.4895
0.02686,0.54443
0.00854,0.625
-0.01099,0.65674
-0.02563,0.70435
-0.04517,0.74097
-0.05981,0.78247
-0.08667,0.80566
-0.08667,0.83496
-0.0769,0.83008
-0.07202,0.84473
-0.07446,0.85449
-0.07813,0.82642
-0.08789,0.84106
-0.08667,0.83374
-0.08789,0.82642
-0.08057,0.81299
-0.07324,0.80078
-0.0769,0.77148
-0.06958,0.75806
-0.06226,0.75317
-0.04883,0.75195
-0.03784,0.73608
-0.03662,0.71777
-0.04028,0.71655
-0.06592,0.69702
-0.06836,0.6958
-0.06104,0.70557
-0.04761,0.69824
-0.04761,0.68848
-0.04883,0.67749
-0.05249,0.66528
-0.05249,0.67383
-0.05981,0.64941
-0.06104,0.63354
-0.05615,0.62622
-0.06104,0.61768
-0.06836,0.61157
-0.08301,0.58105
-0.0769,0.56152
-0.05859,0.56641
-0.03052,0.53223
-0.01343,0.5127
-0.01953,0.49805
-0.0293,0.50171
-0.0293,0.48706
-0.01343,0.46753
0,0.45898
-0.00732,0.45044
-0.03052,0.41626
-0.06836,0.4187
-0.09399,0.41504
-0.10864,0.4126
-0.12207,0.40649
-0.1123,0.40161
-0.11597,0.39063
-0.1062,0.3833
-0.09399,0.39429
-0.06714,0.37964
-0.0415,0.38452
-0.03174,0.35522
-0.02441,0.35889
-0.03296,0.36133
-0.0354,0.33936
-0.03418,0.32715
-0.03784,0.33447
-0.03784,0.32227
-0.0415,0.29785
-0.06226,0.28198
-0.06104,0.25879
-0.08423,0.26245
-0.11719,0.24536
-0.13428,0.23193
-0.11963,0.21362
-0.04272,0.17578
0.00854,0.16235
0.02075,0.13428
0.02319,0.12329
0.0415,0.09399
0.09399,0.09399
0.11841,0.05493
0.11108,0.04395
0.0647,0.02197
0.0293,0.00854
-0.00366,-0.02319
-0.00732,-0.03418
-0.01587,-0.0769
-0.03418,-0.09888
-0.06714,-0.10132
-0.08179,-0.11719
-0.08545,-0.16235
-0.06592,-0.17822
-0.04883,-0.19409
-0.03418,-0.19897
0.00244,-0.21973
0.00488,-0.24658
-0.01709,-0.27222
-0.05493,-0.29175
-0.06592,-0.29297
-0.0647,-0.32349
-0.0647,-0.34546
-0.07202,-0.35034
-0.05859,-0.37476
0.00488,-0.37354
0.09155,-0.40161
0.16113,-0.41626
0.21973,-0.40527
0.2356,-0.41748
0.19775,-0.44922
0.08423,-0.45044
-0.0293,-0.46875
-0.09399,-0.45776
-0.12817,-0.47974
-0.12085,-0.48584
-0.12573,-0.50293
-0.10132,-0.49805
-0.07935,-0.5188
-0.05737,-0.53589
-0.04883,-0.5249
-0.0415,-0.55908
-0.04272,-0.56396
-0.02563,-0.57129
-0.0061,-0.56641
0.01221,-0.58105
0.03418,-0.57495
0.04272,-0.60303
0.07446,-0.59204
0.10254,-0.61279
0.09766,-0.61279
0.08057,-0.62866
0.05615,-0.64819
0.03052,-0.63477
0.03296,-0.64087
0.03174,-0.66528
0.06226,-0.65552
0.12085,-0.66772
0.15137,-0.67749
0.177,-0.68726
0.16357,-0.69702
0.13916,-0.69702
0.11475,-0.6897
0.15259,-0.67261
0.19897,-0.68848
0.21973,-0.67139
0.19409,-0.65674
0.13916,-0.63232
0.12939,-0.57739
0.16357,-0.53589
0.19653,-0.49194
0.22461,-0.4126
0.23315,-0.32471
0.25391,-0.2417
0.2356,-0.17456
0.19897,-0.05737
0.16968,0.0415
0.17578,0.12695
0.22827,0.24536
0.28198,0.32471
0.24902,0.44434
0.15137,0.52368
0.0415,0.625
-0.00977,0.69702
-0.00732,0.77881
-0.00732,0.83862
0.01587,0.89111
0.01221,0.95337
0.02319,0.99854
0.02441,1.01196
0.00977,1.0376
0.0647,1.06567
0.10376,1.09375
0.11597,1.09009
0.11353,1.11572
0.05249,1.1145
0.00122,1.09619
-0.05005,1.10229
-0.05737,1.09375
-0.06348,1.08154
-0.0708,1.05713
-0.06958,1.06079
-0.0354,1.04736
0.06348,1.01196
0.13306,1.01563
0.09888,1.01318
0.06836,1.00098
0.06714,0.98267
0.07568,0.98755
0.08057,0.95825
0.02441,0.95703
-0.00732,0.9668
0.00488,0.93994
0.00732,0.95093
-0.00488,0.93994
-0.01221,0.91797
0.04272,0.90698
0.04639,0.88623
0.03174,0.87646
0.01343,0.86914
0.06592,0.84961
0.09277,0.82275
0.06958,0.79346
-0.00732,0.77637
-0.03784,0.74219
-0.00977,0.7251
0.02319,0.69946
0.04272,0.69092
0.0415,0.66162
0.01709,0.64087
0.03174,0.63599
0.06348,0.60669
0.06226,0.61401
0.05127,0.58105
0.03296,0.58472
0.05371,0.59082
0.08667,0.57373
0.09521,0.58838
0.10132,0.58228
0.13306,0.56641
0.11353,0.57373
0.06836,0.5957
-0.01831,0.57617
-0.10132,0.59448
-0.13184,0.58228
-0.15015,0.60547
-0.13062,0.60181
-0.06958,0.59814
-0.01343,0.60181
0.05371,0.5896
0.11353,0.57373
0.15625,0.57129
0.13184,0.55054
0.05859,0.52856
-0.01465,0.52856
-0.0415,0.4834
-0.00366,0.47974
0.04028,0.45532
0.0708,0.40771
0.09521,0.37598
0.06714,0.354
0.03784,0.32593
0.0061,0.28442
0.00122,0.25879
0.01587,0.22705
0.01343,0.20752
0.0293,0.17456
0.00366,0.13428
-0.01709,0.12207
-0.0415,0.1001
-0.05249,0.06958
-0.06226,0.0354
-0.08789,0.02808
-0.04883,-0.01587
-0.00366,-0.03174
0.02563,-0.06714
0.03174,-0.06592
0.01343,-0.09766
-0.0415,-0.09155
-0.08301,-0.10498
-0.11597,-0.10986
-0.04272,-0.13428
0.01587,-0.15137
0.1001,-0.15869
0.1355,-0.17944
0.177,-0.17822
0.22705,-0.2124
0.21484,-0.23071
0.08911,-0.25146
-0.06226,-0.25879
-0.18066,-0.26245
-0.22827,-0.28564
-0.21606,-0.30029
-0.18921,-0.29419
-0.1416,-0.31616
-0.10132,-0.32104
-0.1062,-0.33691
-0.12085,-0.33813
-0.05371,-0.35156
0.02808,-0.33325
0.04883,-0.35645
-0.00732,-0.3479
-0.06348,-0.35645
-0.08545,-0.3772
-0.05615,-0.38208
-0.05371,-0.38818
-0.05005,-0.39795
-0.06104,-0.41138
-0.05005,-0.44678
-0.03662,-0.448
0.00366,-0.48218
0.02197,-0.50415
0.00244,-0.52979
-0.02808,-0.54199
-0.0647,-0.55664
-0.04395,-0.58472
-0.01221,-0.60059
0.0354,-0.60547
0.03662,-0.60669
0.01465,-0.61768
0.01099,-0.63354
0.03052,-0.65063
0.04028,-0.6604
0.01587,-0.63354
-0.0061,-0.64331
0.01953,-0.62256
0.10132,-0.61523
0.12451,-0.56885
0.1001,-0.53467
0.06226,-0.47729
0.03174,-0.4248
0.04517,-0.36377
0.00122,-0.27344
-0.05615,-0.21484
-0.08545,-0.12817
-0.07568,-0.02563
-0.01709,0.07324
0.03296,0.15381
0.06104,0.23193
0.05249,0.31982
-0.00977,0.41016
-0.06226,0.46509
-0.11963,0.54199
-0.11841,0.59448
-0.15625,0.64331
-0.22217,0.68237
-0.23926,0.7019
-0.21484,0.72998
-0.14404,0.73853
-0.08911,0.75195
-0.07935,0.7605
-0.11719,0.77271
-0.20996,0.75195
-0.26489,0.7666
-0.24048,0.76416
-0.17944,0.75562
-0.14526,0.72754
-0.16357,0.72632
-0.19775,0.72266
-0.19287,0.6958
-0.18066,0.68726
-0.15625,0.68237
-0.15381,0.66528
-0.14771,0.64331
-0.15015,0.63599
-0.15625,0.64331
-0.1709,0.6189
-0.16724,0.62012
-0.13306,0.60669
-0.08667,0.59082
-0.08911,0.57983
-0.12695,0.5603
-0.17944,0.53955
-0.18555,0.52124
-0.15869,0.49683
-0.15503,0.48096
-0.15015,0.46265
-0.13184,0.4541
-0.10864,0.44678
-0.09399,0.41382
-0.10986,0.38696
-0.13916,0.3772
-0.14282,0.36133
-0.12695,0.32593
-0.11108,0.32471
-0.12207,0.29053
-0.1355,0.28687
-0.14893,0.26367
-0.14038,0.27222
-0.10254,0.26611
-0.09766,0.2417
-0.1123,0.25024
-0.15137,0.23682
-0.18677,0.24536
-0.18677,0.24414
-0.16357,0.21729
-0.14526,0.21484
-0.11963,0.22217
-0.10132,0.2063
-0.07202,0.20874
-0.04517,0.18677
-0.02686,0.20142
-0.04639,0.19165
-0.06958,0.16968
-0.08545,0.14893
-0.06592,0.15381
-0.05005,0.14526
-0.07568,0.11841
-0.09033,0.11475
-0.08789,0.09766
-0.0647,0.08911
-0.07568,0.05737
-0.1123,0.05615
-0.13916,0.01953
-0.15869,0.02075
-0.11475,-0.01099
-0.06958,-0.01953
-0.08789,-0.03906
-0.13428,-0.07568
-0.20264,-0.09888
-0.19653,-0.09888
-0.1709,-0.12085
-0.16724,-0.16724
-0.1355,-0.16479
-0.09033,-0.19897
-0.03418,-0.23193
0.00488,-0.24292
0.0354,-0.27344
0.07202,-0.2771
0.11963,-0.30884
0.11108,-0.33936
0.07935,-0.33813
-0.0061,-0.36133
-0.11597,-0.39795
-0.20264,-0.40039
-0.23193,-0.43579
-0.20264,-0.45044
-0.17578,-0.448
-0.177,-0.46753
-0.17578,-0.4895
-0.15015,-0.53223
-0.09888,-0.53345
-0.06836,-0.55176
-0.07935,-0.59204
-0.09033,-0.59204
-0.08301,-0.63721
-0.06592,-0.64819
-0.04883,-0.64819
-0.05005,-0.68481
-0.03784,-0.69092
-0.00732,-0.69092
-0.00244,-0.7019
-0.02075,-0.72998
-0.03052,-0.75195
-0.03174,-0.74463
-0.01221,-0.78003
0.00244,-0.78857
0.00488,-0.79956
0.02197,-0.7959
0.05615,-0.79346
0.07813,-0.79834
0.08789,-0.81787
0.06348,-0.8313
0.04517,-0.81055
0.03418,-0.8313
0.03662,-0.80322
0.05249,-0.80078
0.0647,-0.78491
0.09644,-0.76294
0.11841,-0.75073
0.11597,-0.70923
0.09521,-0.66162
0.05493,-0.60547
0.05493,-0.52246
0.0708,-0.46387
0.12451,-0.36133
0.177,-0.30029
0.16846,-0.20386
0.11597,-0.10742
0.06958,-0.01953
0.04883,0.06836
0.05127,0.15015
0.01587,0.23315
-0.01343,0.31738
-0.01953,0.36499
-0.04883,0.43701
-0.05371,0.48706
-0.09033,0.52124
-0.1123,0.56274
-0.12817,0.58716
-0.13672,0.61401
-0.1062,0.62988
-0.08179,0.64331
-0.05371,0.64087
-0.08057,0.625
-0.10132,0.62622
-0.09155,0.61279
-0.07935,0.57617
-0.07813,0.55908
-0.08545,0.53467
-0.08667,0.5127
-0.08301,0.5127
-0.1001,0.48096
-0.12329,0.45898
-0.12939,0.42358
-0.13062,0.39673
-0.12573,0.39307
-0.11475,0.37231
-0.08423,0.33813
-0.05249,0.33691
-0.05249,0.33813
-0.07202,0.3064
-0.09033,0.31128
-0.07813,0.29419
-0.06104,0.27466
-0.05859,0.26611
-0.07568,0.22339
-0.08057,0.22583
-0.05737,0.19287
-0.04639,0.16846
-0.05615,0.14404
-0.07202,0.11841
-0.05859,0.10132
-0.04883,0.07324
-0.05737,0.05493
-0.07446,0.01953
-0.07568,0.01831
-0.07324,-0.01953
-0.06714,-0.03906
-0.0415,-0.04028
-0.03662,-0.0708
-0.03906,-0.08423
-0.09033,-0.09033
-0.09888,-0.10376
-0.07324,-0.09277
-0.03784,-0.11475
-0.01465,-0.11475
-0.02197,-0.12573
-0.0415,-0.12329
-0.07446,-0.14771
-0.11719,-0.12939
-0.12085,-0.13672
-0.09521,-0.13916
-0.04517,-0.15015
-0.02319,-0.16479
-0.02686,-0.15137
0.01099,-0.15503
0.0293,-0.18188
0.02075,-0.19775
-0.01099,-0.20508
-0.02808,-0.21362
0.01587,-0.22705
0.05249,-0.21851
0.06958,-0.24902
0.04395,-0.24048
0.00732,-0.24658
-0.0293,-0.26367
-0.04639,-0.28809
-0.05127,-0.28198
-0.05249,-0.29541
-0.07935,-0.30518
-0.09277,-0.31982
-0.09155,-0.35522
-0.04761,-0.36499
-0.00854,-0.35645
-0.00488,-0.36987
-0.03296,-0.39063
-0.06836,-0.42114
-0.08301,-0.43579
-0.06226,-0.42847
-0.03296,-0.46387
0.02319,-0.45532
0.06104,-0.48096
0.09399,-0.48584
0.13672,-0.50415
0.18799,-0.51392
0.20142,-0.52856
0.17822,-0.55908
0.1001,-0.57739
-0.01465,-0.56885
-0.10864,-0.59082
-0.15381,-0.61646
-0.15015,-0.63232
-0.08911,-0.62988
-0.04272,-0.66528
-0.0293,-0.66772
-0.0354,-0.67261
-0.05493,-0.69214
-0.04883,-0.71045
-0.01099,-0.71411
0.02563,-0.75684
0.02075,-0.75562
-0.01343,-0.7605
-0.03174,-0.79468
-0.00488,-0.802
0.03784,-0.82886
0.05737,-0.82153
0.0354,-0.85327
0.00732,-0.85205
0.01709,-0.86914
0.01465,-0.87402
0.02197,-0.90576
0.00854,-0.91309
0.01465,-0.92651
0.05859,-0.92407
0.09277,-0.95215
0.12939,-0.95825
0.11353,-0.96802
0.06958,-0.98389
0.04639,-0.96558
0.05493,-0.9729
0.10498,-0.98633
0.15137,-0.96313
0.15259,-0.97046
0.14526,-0.91797
0.16357,-0.90576
0.17944,-0.84351
0.16968,-0.79346
0.12695,-0.71045
0.1123,-0.62988
0.12817,-0.57129
0.14282,-0.45166
0.13184,-0.3772
0.12451,-0.271
0.12085,-0.15869
0.12207,-0.06104
0.10864,0.05127
0.0769,0.14526
0.05981,0.21484
0.04517,0.31616
0.02075,0.39307
0.00488,0.45044
-0.03662,0.49438
-0.09033,0.56274
-0.09521,0.58472
-0.08911,0.63477
-0.06836,0.65308
-0.05249,0.66406
-0.06592,0.67017
-0.05249,0.67383
-0.05249,0.67383
-0.05127,0.66895
-0.0769,0.67993
-0.0708,0.65063
-0.06592,0.65918
-0.06226,0.64575
-0.08423,0.6189
-0.1062,0.59326
-0.11597,0.57983
-0.08179,0.56396
-0.0354,0.55176
0,0.53955
-0.01099,0.53589
-0.05737,0.51636
-0.09888,0.52124
-0.08057,0.5127
-0.02563,0.52124
-0.00732,0.50293
-0.03662,0.50537
-0.08057,0.50293
-0.1001,0.49561
-0.07935,0.46387
-0.06958,0.4541
-0.04272,0.4541
-0.01343,0.45044
-0.02075,0.4187
-0.01099,0.4126
-0.05493,0.40039
-0.06836,0.38574
-0.06348,0.36011
-0.05737,0.33325
-0.05249,0.32959
-0.06348,0.31006
-0.06104,0.28442
-0.05737,0.2832
-0.06104,0.25024
-0.08057,0.23804
-0.06958,0.22949
-0.03662,0.2124
0.00488,0.20142
0.01587,0.17334
0.00488,0.16602
-0.02441,0.16479
-0.02686,0.14404
-0.03418,0.13916
-0.03784,0.12329
-0.03174,0.1123
-0.04639,0.10376
-0.04028,0.07813
-0.01831,0.08911
0.00732,0.05737
0.03906,0.05005
0.03906,0.05493
0.01831,0.02441
-0.00244,0.03418
-0.00732,0.0061
0.01221,-0.00854
0.02075,-0.01465
0.00854,-0.04517
-0.01709,-0.04395
-0.04639,-0.05371
-0.04883,-0.07324
-0.05371,-0.10742
-0.04517,-0.10986
-0.04272,-0.13916
-0.02441,-0.14648
-0.01709,-0.18311
-0.03662,-0.2002
-0.05859,-0.19897
-0.0708,-0.21362
-0.05859,-0.23071
-0.02808,-0.25146
-0.02686,-0.26855
-0.02563,-0.29663
-0.01465,-0.30151
0.02319,-0.34546
0.11108,-0.34546
0.20752,-0.3833
0.21973,-0.40283
0.17334,-0.4248
0.08057,-0.45898
0.00732,-0.50415
-0.09033,-0.50659
-0.15381,-0.55664
-0.20508,-0.57251
-0.19165,-0.59937
-0.12085,-0.60425
-0.07446,-0.64331
-0.05127,-0.6665
-0.05005,-0.68359
-0.05615,-0.69214
-0.04028,-0.71167
-0.02808,-0.72632
-0.01099,-0.75806
0.00366,-0.78369
0.01465,-0.77515
0.02197,-0.81421
0.01953,-0.82397
0.00488,-0.83374
0.0061,-0.85327
0.01953,-0.84839
0.03784,-0.85205
0.03906,-0.86914
0.03174,-0.89966
0.02197,-0.89722
0.03174,-0.90454
0.06348,-0.91553
0.07202,-0.94971
0.06104,-0.95703
0.05005,-0.95459
0.04883,-0.95947
0.0708,-0.98633
0.08667,-0.96313
0.08911,-0.96802
0.10498,-0.97168
0.11597,-0.98267
0.13672,-0.93384
0.14038,-0.91797
0.13306,-0.88257
0.13306,-0.81787
0.12939,-0.76172
0.13306,-0.70313
0.12573,-0.61279
0.12939,-0.52734
0.13794,-0.44434
0.14526,-0.36499
0.14282,-0.26611
0.12207,-0.16602
0.10742,-0.09277
0.08911,0.01953
0.0769,0.10254
0.05859,0.17456
0.01221,0.25635
-0.01221,0.33203
-0.02563,0.38818
-0.01709,0.43213
-0.04761,0.46387
-0.09033,0.51025
-0.12085,0.52612
-0.10376,0.52979
-0.10498,0.55054
-0.09155,0.56274
-0.09644,0.55664
-0.06104,0.53589
-0.03662,0.52368
-0.01709,0.53345
-0.02808,0.52002
-0.06836,0.48828
-0.11475,0.49438
-0.12817,0.46753
-0.10498,0.46875
-0.08545,0.4541
-0.08301,0.448
-0.09888,0.43091
-0.08789,0.44678
-0.08179,0.41992
-0.05493,0.43701
-0.0415,0.42236
-0.02441,0.42236
-0.02686,0.43335
-0.02441,0.41992
-0.03052,0.43945
-0.05371,0.44067
-0.06348,0.43579
-0.09766,0.42725
-0.11475,0.42114
-0.11597,0.39429
-0.11353,0.38086
-0.08301,0.37109
-0.05371,0.37476
-0.03052,0.35645
-0.00854,0.33813
-0.02075,0.32593
-0.00732,0.30762
0.01343,0.28076
0.01831,0.25635
-0.0293,0.23438
-0.07568,0.23804
-0.11597,0.22095
-0.09521,0.19165
-0.06836,0.2002
-0.04517,0.16602
-0.04639,0.16235
-0.05737,0.14771
-0.05859,0.15503
-0.05127,0.12573
-0.02441,0.13184
0,0.10742
0.03296,0.12573
0.05005,0.11353
0.0647,0.09277
0.03662,0.09521
0.00977,0.09888
-0.01343,0.08545
-0.02319,0.07813
-0.02075,0.07935
-0.04395,0.05981
-0.06226,0.05371
-0.07813,0.04639
-0.06958,0.03906
-0.04761,0.0061
-0.0293,0.01099
-0.0354,-0.00366
-0.05737,-0.01587
-0.0647,-0.04395
-0.06836,-0.06592
-0.05981,-0.09033
-0.06836,-0.10742
-0.0647,-0.12451
-0.05249,-0.14893
-0.0293,-0.16968
0,-0.19043
0.04883,-0.20996
0.10132,-0.23926
0.14282,-0.25024
0.13428,-0.26855
0.08911,-0.27588
0.01343,-0.31738
-0.06836,-0.34424
-0.13672,-0.36987
-0.19043,-0.39185
-0.2063,-0.41138
-0.18188,-0.44189
-0.12817,-0.45044
-0.0769,-0.49561
-0.05005,-0.52124
-0.03418,-0.51636
-0.02686,-0.54077
-0.01221,-0.55664
0.03174,-0.5957
0.05859,-0.60913
0.05493,-0.62866
0.02808,-0.63232
-0.00244,-0.66772
0.00366,-0.68115
0.00122,-0.69092
0.01587,-0.6958
0.03296,-0.70313
0.04272,-0.7312
0.05737,-0.73975
0.05737,-0.73242
0.06714,-0.76904
0.06592,-0.75317
0.06226,-0.77148
0.06348,-0.80078
0.05005,-0.81055
0.04517,-0.81055
0.0354,-0.81421
0.04272,-0.84351
0.0647,-0.85083
0.09155,-0.8313
0.12573,-0.85327
0.15137,-0.84595
0.17334,-0.83374
0.17944,-0.80811
0.16357,-0.75562
0.15747,-0.73486
0.14893,-0.68237
0.15625,-0.6189
0.16235,-0.54321
0.14893,-0.46631
0.14404,-0.37598
0.14526,-0.29053
0.13428,-0.19897
0.13306,-0.09155
0.11108,0.00488
0.09766,0.08057
0.07813,0.1709
0.05859,0.23926
0.04761,0.31738
0.02563,0.38208
-0.01099,0.42603
-0.0415,0.48706
-0.06592,0.50903
-0.05981,0.54932
-0.0708,0.57495
-0.08057,0.59204
-0.09399,0.60669
-0.09033,0.61157
-0.06104,0.61523
-0.05371,0.60303
-0.05493,0.59692
-0.07202,0.58594
-0.09033,0.5603
-0.08301,0.53711
-0.08911,0.51636
-0.09521,0.50537
-0.07202,0.4895
-0.06592,0.46997
-0.04883,0.46143
-0.05981,0.44556
-0.05127,0.4248
-0.04028,0.39307
-0.02441,0.3833
-0.03296,0.36987
-0.05737,0.36255
-0.07813,0.34424
-0.09155,0.33813
-0.0647,0.33081
-0.04028,0.31616
-0.03418,0.31982
-0.04883,0.31128
-0.05859,0.27954
-0.03906,0.27832
-0.02808,0.25879
-0.04883,0.24536
-0.06348,0.21484
-0.05371,0.20874
-0.03418,0.18677
-0.04517,0.15991
-0.08057,0.15015
-0.09277,0.10864
-0.06714,0.11353
-0.02808,0.08179
-0.0293,0.08545
-0.04883,0.06958
-0.0647,0.04395
-0.04517,0.03906
-0.02319,0.03906
-0.00854,0.01587
-0.02686,0.01221
-0.03296,0.01343
-0.02808,0
-0.0061,-0.01099
0.01099,-0.01221
0.01953,-0.01709
0.01709,-0.00732
0,-0.00488
-0.01465,-0.01343
0.00732,-0.01099
0.00488,-0.02441
0.00488,-0.04883
-0.01831,-0.04517
-0.0354,-0.05859
-0.03174,-0.05737
-0.03174,-0.07935
-0.0293,-0.1001
-0.03906,-0.08789
-0.04639,-0.1001
-0.05371,-0.12207
-0.05615,-0.14771
-0.06226,-0.1709
-0.04639,-0.17212
-0.05615,-0.20508
-0.05127,-0.21729
-0.05981,-0.22461
-0.04272,-0.25513
-0.00732,-0.27222
0.02808,-0.29907
0.04639,-0.29907
0.07324,-0.32471
0.12573,-0.35278
0.15137,-0.37109
0.12695,-0.39917
0.03784,-0.39185
-0.10132,-0.4126
-0.18677,-0.42725
-0.21362,-0.46997
-0.18921,-0.48706
-0.12939,-0.48584
-0.08789,-0.50659
-0.04639,-0.54199
-0.03052,-0.55054
-0.00366,-0.56396
0.00488,-0.56763
0.01099,-0.60547
0.02319,-0.59937
0.02319,-0.6189
0.04517,-0.6311
0.05249,-0.65674
0.03296,-0.67749
0.02197,-0.69702
0.02197,-0.70923
0.03418,-0.69824
0.04517,-0.72144
0.03418,-0.75073
0.02319,-0.74707
0.01831,-0.76904
0.02441,-0.77026
0.05493,-0.77881
0.06836,-0.79224
0.1062,-0.80933
0.09399,-0.82886
0.08911,-0.85083
0.07202,-0.85327
0.06592,-0.86426
0.08545,-0.8606
0.11841,-0.896
0.13916,-0.8667
0.15137,-0.85571
0.13794,-0.86426
0.12573,-0.82031
0.12695,-0.79102
0.13428,-0.71899
0.13672,-0.66895
0.14404,-0.60425
0.17456,-0.50903
0.19409,-0.44067
0.18555,-0.35645
0.14648,-0.2417
0.11719,-0.16235
0.11108,-0.05371
0.12695,0.02319
0.11475,0.10254
0.08423,0.19409
0.03418,0.26733
-0.00977,0.33936
-0.02686,0.40039
-0.03906,0.47363
-0.05493,0.49805
-0.08301,0.53101
-0.08911,0.55908
-0.09766,0.58228
-0.09399,0.60669
-0.09155,0.61279
-0.08301,0.61157
-0.05615,0.59448
-0.03052,0.57129
-0.02686,0.56641
-0.04639,0.55664
-0.05615,0.51025
-0.08179,0.49683
-0.06836,0.47607
-0.07813,0.43579
-0.06592,0.41626
-0.0769,0.37842
-0.07935,0.35156
-0.07935,0.34668
-0.07324,0.30884
-0.04272,0.30884
-0.0354,0.28809
-0.05493,0.25146
-0.09155,0.2356
-0.1062,0.24292
-0.08789,0.21729
-0.06226,0.21729
-0.04517,0.20142
-0.06226,0.18066
-0.07446,0.17212
-0.0769,0.15747
-0.06958,0.13916
-0.06348,0.14771
-0.06348,0.11841
-0.0769,0.10376
-0.08545,0.09888
-0.10132,0.09155
-0.10742,0.05615
-0.09399,0.04761
-0.05493,0.0354
-0.04272,0.03052
-0.05737,0.03052
-0.08545,0.03662
-0.09277,0.03052
-0.09033,0.01587
-0.08667,0.02441
-0.08789,0.04028
-0.08179,0.04639
-0.07568,0.05371
-0.07813,0.0415
-0.05493,0.05249
-0.01343,0.07813
0.00122,0.06836
0.01343,0.08179
0.00732,0.10132
0.00488,0.11719
-0.00732,0.10864
-0.02441,0.12207
-0.02075,0.11108
-0.02808,0.1001
-0.01709,0.09888
-0.03296,0.08911
-0.05615,0.09644
-0.06348,0.07202
-0.06348,0.05981
-0.07324,0.05005
-0.1001,0.05005
-0.10254,0.02197
-0.09399,0.01221
-0.06836,-0.02686
-0.08423,-0.04395
-0.08301,-0.04517
-0.05249,-0.07813
-0.01343,-0.08911
0.00122,-0.10986
-0.00488,-0.15137
-0.0293,-0.17212
0.00732,-0.18799
0.05981,-0.18677
0.12695,-0.21729
0.13794,-0.23438
0.09888,-0.25879
0.03418,-0.27588
-0.04272,-0.27588
-0.10132,-0.28198
-0.14282,-0.29297
-0.16113,-0.32959
-0.13428,-0.31494
-0.08911,-0.32349
-0.04395,-0.34302
-0.01465,-0.3479
-0.03174,-0.37476
-0.04517,-0.37476
-0.03174,-0.37354
0.01587,-0.38208
0.05737,-0.39429
0.04028,-0.40649
0.00122,-0.39429
-0.02319,-0.41016
-0.01709,-0.4248
0.01343,-0.40771
0.03784,-0.41504
0.05493,-0.44678
0.06104,-0.4541
0.0415,-0.43701
0.05859,-0.46631
0.06714,-0.45654
0.08301,-0.4834
0.08301,-0.46631
0.05615,-0.48706
0.05005,-0.4895
0.04395,-0.51636
0.04517,-0.52368
0.04517,-0.51147
0.06226,-0.53467
0.08545,-0.52979
0.10254,-0.49438
0.10376,-0.48462
0.07813,-0.47607
0.05493,-0.41382
0.06714,-0.36865
0.09033,-0.31494
0.11597,-0.24536
0.13428,-0.15991
0.13062,-0.07935
0.13428,-0.00732
0.13794,0.1062
0.12939,0.19653
0.09766,0.29419
0.0415,0.36255
-0.01709,0.46997
-0.01709,0.55664
-0.00854,0.62378
0.01099,0.70435
-0.03296,0.75684
-0.04639,0.80322
-0.06592,0.85083
-0.04028,0.88379
-0.0354,0.90942
-0.06592,0.9375
-0.09399,0.9436
-0.12451,0.95581
-0.09888,0.93994
-0.07324,0.9314
-0.06226,0.92041
-0.06592,0.91797
-0.05859,0.90942
-0.05615,0.87769
-0.07935,0.85815
-0.12207,0.85205
-0.13062,0.81299
-0.13428,0.80688
-0.10132,0.78369
-0.05493,0.74951
-0.06836,0.73364
-0.07446,0.72266
-0.09644,0.70068
-0.08179,0.69946
-0.06104,0.6958
-0.05737,0.68115
-0.05371,0.65918
-0.04639,0.65796
-0.06104,0.625
-0.06348,0.61401
-0.07202,0.60303
-0.05859,0.58472
-0.05249,0.56152
-0.04395,0.55176
-0.02319,0.5249
-0.01953,0.52246
-0.04639,0.49805
-0.09766,0.46997
-0.11475,0.4541
-0.08789,0.44189
-0.05005,0.41504
-0.02686,0.39673
-0.0415,0.38208
-0.05981,0.36011
-0.05737,0.3479
-0.06714,0.32227
-0.07324,0.30396
-0.09766,0.29297
-0.09033,0.30151
-0.04272,0.2832
-0.01587,0.27344
-0.00244,0.27466
-0.02686,0.27466
-0.04883,0.26978
-0.06348,0.24292
-0.05615,0.24902
-0.05493,0.23438
-0.06104,0.24658
-0.06714,0.23071
-0.05127,0.23804
-0.01099,0.21851
0.01587,0.21484
0.01831,0.20386
0.02686,0.21118
-0.0061,0.17578
-0.02441,0.18188
-0.04639,0.17212
-0.03906,0.15259
0,0.1416
-0.00732,0.10376
-0.04883,0.08057
-0.04272,0.06714
-0.05127,0.0415
-0.0354,0.04028
-0.0415,0.01221
-0.06958,0.0061
-0.07446,-0.0354
-0.08057,-0.05493
-0.10742,-0.06836
-0.09521,-0.09033
-0.09521,-0.12085
-0.0708,-0.11475
-0.02808,-0.14404
0.00122,-0.15381
0.01099,-0.17456
0.02686,-0.21362
0.0708,-0.23193
0.12451,-0.23926
0.14771,-0.24292
0.10132,-0.25879
0.02319,-0.29541
-0.08423,-0.29297
-0.14893,-0.32104
-0.15503,-0.33447
-0.11353,-0.3418
-0.08179,-0.33691
-0.06226,-0.34912
-0.04883,-0.37476
-0.03052,-0.38208
-0.02075,-0.39551
-0.01831,-0.44067
-0.01953,-0.43335
-0.02563,-0.46997
-0.01831,-0.49438
-0.00732,-0.49072
0.00366,-0.52002
-0.00366,-0.5249
-0.02197,-0.53101
-0.03662,-0.5481
-0.02319,-0.57373
0.01221,-0.57007
0.03662,-0.60791
0.03296,-0.61523
0.01587,-0.62988
0.00488,-0.64087
0.00244,-0.64331
0.01343,-0.63599
0.05127,-0.64575
0.0708,-0.67871
0.05859,-0.68604
0.04639,-0.6958
0.05737,-0.70313
0.07446,-0.69946
0.08057,-0.67993
0.03784,-0.68481
0.01709,-0.6604
0.03174,-0.62866
0.06836,-0.56519
0.10254,-0.50171
0.12573,-0.43945
0.12573,-0.37109
0.13062,-0.26611
0.13428,-0.19653
0.16968,-0.09766
0.15869,0.00488
0.10986,0.12573
0.04517,0.21118
0.03174,0.30518
0.08179,0.4126
0.10254,0.50781
0.06592,0.58472
-0.03784,0.66406
-0.08911,0.72144
-0.09155,0.7666
-0.0708,0.81299
-0.07202,0.85571
-0.06836,0.88989
-0.07324,0.90332
-0.08911,0.91309
-0.07568,0.91431
-0.03784,0.91187
-0.03174,0.92896
-0.05493,0.91064
-0.10132,0.91187
-0.13306,0.90454
-0.11963,0.88379
-0.09399,0.8728
-0.08057,0.8667
-0.0769,0.85571
-0.08057,0.82886
-0.07813,0.82886
-0.03052,0.81665
-0.03906,0.80688
-0.06226,0.79102
-0.1001,0.77271
-0.10254,0.78979
-0.08911,0.77393
-0.09399,0.76172
-0.1123,0.75073
-0.11841,0.73608
-0.10254,0.72998
-0.07446,0.71533
-0.05127,0.71289
-0.01831,0.68848
-0.02319,0.67993
-0.0293,0.68237
-0.0415,0.64331
-0.05859,0.62622
-0.08301,0.625
-0.07568,0.60425
-0.0708,0.57617
-0.04395,0.54565
-0.05493,0.53589
-0.05371,0.50049
-0.05737,0.48462
-0.03784,0.46875
-0.00977,0.45044
0.00732,0.40527
0.00732,0.40405
-0.00854,0.37354
-0.01465,0.36499
0.00244,0.35156
0.00488,0.31982
-0.00488,0.32959
-0.01587,0.30273
-0.01221,0.30151
0.02808,0.27954
0.04639,0.26611
0.04639,0.26611
0.04761,0.26978
0.04517,0.23926
0.06836,0.25146
0.0708,0.23926
0.08057,0.21606
0.11719,0.20996
0.13184,0.18921
0.11719,0.2002
0.0708,0.17578
0.0415,0.16968
0.06348,0.16235
0.08545,0.12817
0.07202,0.10742
0.0354,0.09521
-0.00366,0.07446
-0.01221,0.05371
-0.00732,0.03174
0.00732,0.01587
0.01221,0.01221
0.02686,-0.02808
0.03784,-0.03174
0.02075,-0.05371
-0.02319,-0.06714
-0.0354,-0.11353
0.00854,-0.12085
0.06348,-0.15381
0.10742,-0.17212
0.13794,-0.19531
0.2002,-0.21118
0.24292,-0.23804
0.25513,-0.23438
0.2002,-0.26001
0.10986,-0.29541
0.0061,-0.31494
-0.0647,-0.3125
-0.07324,-0.34302
-0.05615,-0.36865
-0.03296,-0.3772
-0.03906,-0.39917
-0.00732,-0.4248
0.03296,-0.44189
0.04395,-0.43823
0.03296,-0.45166
0.00732,-0.47852
0.01709,-0.49072
0.04517,-0.50537
0.05127,-0.53101
0.04639,-0.5481
0.0293,-0.54565
0.02441,-0.54565
0.04272,-0.57861
0.05005,-0.57129
0.07568,-0.60425
0.07202,-0.61279
0.05127,-0.6311
0.04028,-0.62012
0.03662,-0.62988
0.06104,-0.66162
0.08179,-0.64941
0.09277,-0.68726
0.09521,-0.67505
0.10254,-0.70557
0.10132,-0.68848
0.09155,-0.70557
0.08545,-0.70313
0.09277,-0.70679
0.10254,-0.67017
0.1123,-0.64209
0.11597,-0.62378
0.12695,-0.5603
0.15137,-0.49438
0.15259,-0.44678
0.15015,-0.34424
0.13062,-0.27222
0.13672,-0.17456
0.14648,-0.08423
0.14526,0.01587
0.12817,0.11353
0.08789,0.20752
0.07568,0.29663
0.0769,0.3772
0.07935,0.46143
0.05005,0.5249
0.00122,0.57983
-0.03662,0.63599
-0.05615,0.69702
-0.06226,0.72754
-0.05493,0.75439
-0.05493,0.77759
-0.06714,0.78979
-0.09888,0.81543
-0.10254,0.82275
-0.09399,0.79834
-0.06348,0.79956
-0.05371,0.78247
-0.0647,0.77393
-0.07202,0.77881
-0.07568,0.74951
-0.07202,0.74951
-0.06714,0.72998
-0.06836,0.70679
-0.05371,0.68359
-0.05737,0.68359
-0.0647,0.67627
-0.08179,0.65918
-0.10864,0.66284
-0.09644,0.62744
-0.09399,0.62622
-0.07324,0.62012
-0.0708,0.62378
-0.07446,0.61279
-0.06836,0.58472
-0.05249,0.59448
-0.05737,0.57739
-0.05615,0.54688
-0.05249,0.54321
-0.05249,0.53589
-0.05005,0.50293
-0.06836,0.47974
-0.0769,0.46875
-0.07202,0.43701
-0.05127,0.42725
-0.02441,0.40771
-0.00122,0.37354
-0.01465,0.35522
-0.05127,0.33936
-0.10132,0.34302
-0.10376,0.30151
-0.0769,0.30396
-0.0647,0.30518
-0.0708,0.29175
-0.07935,0.27222
-0.0708,0.27466
-0.05249,0.24414
-0.04028,0.25269
-0.04272,0.25391
-0.05615,0.22339
-0.05127,0.21973
-0.05127,0.22827
-0.05127,0.21973
-0.04272,0.20142
-0.03174,0.19531
-0.0061,0.20386
0.02319,0.19165
0.02197,0.17944
0.00732,0.15747
-0.01831,0.15015
-0.01343,0.15625
0.01465,0.12817
0.02808,0.12817
0.01709,0.09644
-0.02686,0.09399
-0.03662,0.06836
-0.05859,0.04395
-0.05127,0.03906
-0.07324,0.01221
-0.09888,-0.01221
-0.10132,-0.00854
-0.08423,-0.03052
-0.05737,-0.06592
-0.05249,-0.09033
-0.06226,-0.09521
-0.06226,-0.12573
-0.06592,-0.14526
-0.0647,-0.15991
-0.07446,-0.17944
-0.04272,-0.21118
-0.01221,-0.22827
0.03052,-0.23315
0.06348,-0.24536
0.13184,-0.26978
0.18311,-0.28442
0.19897,-0.31128
0.11841,-0.32227
0.00488,-0.33813
-0.08911,-0.34912
-0.15869,-0.37354
-0.15991,-0.39429
-0.13062,-0.41626
-0.07568,-0.41504
-0.04639,-0.41992
-0.05371,-0.44678
-0.07446,-0.4541
-0.08057,-0.48096
-0.05859,-0.48706
-0.04028,-0.50537
-0.04883,-0.50293
-0.03906,-0.50903
-0.03418,-0.54688
-0.01709,-0.5481
0.00977,-0.54321
0.0293,-0.57251
0.03296,-0.59326
0.00732,-0.59082
-0.00977,-0.59448
-0.00977,-0.60791
0,-0.6189
0.02319,-0.63965
0.03784,-0.65796
0.05981,-0.64941
0.07568,-0.65796
0.06226,-0.6665
0.05615,-0.67993
0.03296,-0.70313
0.0415,-0.69946
0.05005,-0.70679
0.06104,-0.7019
0.06348,-0.67749
0.08179,-0.65796
0.10742,-0.64453
0.13672,-0.60303
0.1355,-0.54565
0.12695,-0.46631
0.10376,-0.40039
0.10132,-0.33081
0.10986,-0.22339
0.10864,-0.15381
0.12573,-0.05859
0.13062,0.03174
0.1062,0.13062
0.06836,0.22339
0.03906,0.31738
0.04883,0.39063
0.05127,0.49072
0.02075,0.54932
-0.00488,0.59814
-0.03174,0.67139
-0.04028,0.70313
-0.06104,0.74341
-0.06958,0.77026
-0.0708,0.78125
-0.0708,0.78369
-0.09155,0.79102
-0.10986,0.78613
-0.08789,0.78613
-0.07935,0.77515
-0.0708,0.76782
-0.08423,0.74585
-0.08057,0.74097
-0.0769,0.70923
-0.06714,0.70068
-0.06836,0.68237
-0.06348,0.67627
-0.07324,0.64331
-0.08057,0.65063
-0.07813,0.63354
-0.07446,0.625
-0.06104,0.60791
-0.05981,0.60425
-0.06958,0.57617
-0.07446,0.58228
-0.0769,0.57495
-0.06226,0.55176
-0.05005,0.55054
-0.04395,0.52612
-0.04272,0.51636
-0.05737,0.49683
-0.05371,0.50537
-0.04883,0.47974
-0.06104,0.448
-0.05371,0.44556
-0.04761,0.41382
-0.03784,0.39795
-0.0354,0.38696
-0.02563,0.37354
-0.02441,0.354
-0.01465,0.34912
-0.03296,0.33325
-0.0647,0.32471
-0.08057,0.28931
-0.06958,0.28931
-0.0415,0.27466
-0.0354,0.26855
-0.04761,0.25879
-0.06714,0.26489
-0.06592,0.26978
-0.06348,0.26001
-0.0415,0.24658
-0.01099,0.25024
-0.01465,0.24414
-0.03174,0.22827
-0.05127,0.22461
-0.03174,0.22705
0.00122,0.21606
0.02441,0.20386
0.02319,0.21729
0.02808,0.2063
0.03296,0.17212
0.03784,0.15869
0.03174,0.15137
0.02319,0.13062
0,0.13306
-0.03784,0.12207
-0.06592,0.09277
-0.07935,0.07202
-0.07446,0.04883
-0.06348,0.03296
-0.0647,0.0061
-0.05981,-0.01465
-0.06592,-0.01343
-0.05005,-0.05249
-0.03662,-0.07324
-0.03052,-0.08911
-0.04761,-0.09033
-0.05615,-0.10376
-0.05981,-0.12207
-0.05615,-0.14893
-0.03784,-0.16357
-0.00977,-0.17944
0.05859,-0.2002
0.14282,-0.23926
0.20752,-0.2356
0.22949,-0.26855
0.17578,-0.28809
0.06958,-0.30762
-0.04517,-0.31982
-0.14038,-0.34058
-0.16724,-0.33569
-0.12695,-0.34546
-0.10498,-0.38208
-0.07568,-0.38818
-0.06836,-0.40039
-0.04761,-0.40405
-0.03784,-0.4126
-0.02686,-0.42725
-0.01587,-0.46143
-0.0061,-0.47485
-0.00366,-0.47607
-0.01221,-0.49561
-0.02686,-0.4834
-0.02686,-0.51514
-0.01465,-0.52124
0.00732,-0.53955
0.00244,-0.54077
0.01343,-0.55176
0.01343,-0.57861
0.02808,-0.56641
0.03296,-0.57739
0.03296,-0.60059
0.03784,-0.59692
0.05371,-0.60913
0.05493,-0.62134
0.07202,-0.65552
0.0708,-0.63721
0.08667,-0.65918
0.10742,-0.64941
0.10742,-0.67505
0.12817,-0.65918
0.14404,-0.63965
0.14404,-0.62256
0.1355,-0.59814
0.10742,-0.56519
0.11475,-0.51147
0.15381,-0.45166
0.16602,-0.3894
0.14893,-0.28931
0.1123,-0.20142
0.09521,-0.12085
0.11719,-0.02319
0.12085,0.04639
0.10254,0.15747
0.0708,0.24902
0.04028,0.31616
0.03784,0.39063
0.03052,0.46143
0.00366,0.52124
-0.01099,0.56885
-0.01953,0.63843
-0.00732,0.67871
-0.01099,0.70435
-0.03418,0.72876
-0.0708,0.72388
-0.09277,0.74463
-0.10986,0.75195
-0.10742,0.72754
-0.09277,0.72632
-0.08057,0.72998
-0.05859,0.71533
-0.07202,0.70068
-0.07813,0.6665
-0.09277,0.66772
-0.09033,0.64819
-0.07813,0.61523
-0.06348,0.59692
-0.05127,0.5896
-0.04517,0.5835
-0.08179,0.56519
-0.09521,0.56152
-0.10864,0.53467
-0.09644,0.53589
-0.06104,0.52856
-0.04883,0.49561
-0.03662,0.48828
-0.05127,0.49683
-0.06104,0.46509
-0.07202,0.45776
-0.06348,0.4541
-0.0647,0.4248
-0.06104,0.40771
-0.05371,0.39917
-0.05615,0.37598
-0.04761,0.35522
-0.04272,0.35522
-0.05615,0.33813
-0.03784,0.32593
-0.04761,0.30518
-0.03784,0.27954
-0.05737,0.28442
-0.0769,0.25757
-0.08179,0.26245
-0.06836,0.24902
-0.04272,0.25635
-0.03418,0.25146
-0.04639,0.24536
-0.05249,0.22095
-0.04028,0.21851
-0.02319,0.21118
-0.01465,0.23193
-0.02441,0.22705
-0.00977,0.2002
0.02075,0.21484
0.03296,0.2002
0.02319,0.19897
-0.00244,0.2002
-0.00854,0.17212
0.01465,0.18066
0.00732,0.14648
-0.01221,0.15015
-0.05737,0.12329
-0.08789,0.11841
-0.07324,0.11841
-0.06348,0.08057
-0.05005,0.08057
-0.05371,0.06592
-0.05737,0.0293
-0.05493,0.01343
-0.05859,0.00244
-0.05981,-0.00366
-0.05493,-0.03662
-0.06714,-0.05371
-0.0708,-0.05981
-0.07202,-0.09155
-0.04761,-0.11597
0,-0.11475
0.06104,-0.14893
0.12939,-0.15625
0.20142,-0.19165
0.22827,-0.2002
0.19287,-0.21729
0.09033,-0.24414
-0.01221,-0.23682
-0.10132,-0.25269
-0.14404,-0.27954
-0.15137,-0.28564
-0.13794,-0.32593
-0.10254,-0.3418
-0.0708,-0.34668
-0.03906,-0.36011
-0.00977,-0.3833
-0.01221,-0.37598
-0.02197,-0.38818
-0.05493,-0.40649
-0.05005,-0.43213
-0.02441,-0.43945
0.02197,-0.45532
0.0354,-0.46875
0.02075,-0.48218
0.00977,-0.50293
0.01343,-0.50415
0.03052,-0.52368
0.03296,-0.51514
0.0354,-0.54565
0.03174,-0.5542
0.04883,-0.57739
0.05981,-0.56885
0.06104,-0.59204
0.04883,-0.61401
0.04272,-0.60669
0.05005,-0.61646
0.08423,-0.64331
0.10742,-0.64331
0.11597,-0.66528
0.11108,-0.66528
0.10986,-0.6604
0.11597,-0.6311
0.12329,-0.61157
0.12817,-0.56763
0.14282,-0.52612
0.13794,-0.47852
0.12939,-0.40771
0.11963,-0.35522
0.12695,-0.28076
0.14526,-0.20386
0.15381,-0.10986
0.1355,-0.00732
0.10742,0.05615
0.08545,0.15747
0.07446,0.24536
0.07324,0.30518
0.05981,0.37842
0.04517,0.45776
0.03174,0.49072
0.01465,0.54932
-0.00732,0.58594
-0.03174,0.61279
-0.05249,0.64941
-0.08057,0.66162
-0.09766,0.65063
-0.10132,0.66284
-0.09399,0.66528
-0.08545,0.66162
-0.08179,0.65308
-0.07568,0.63965
-0.08667,0.59814
-0.09155,0.58716
-0.08179,0.56763
-0.06958,0.55542
-0.05127,0.5481
-0.0647,0.52734
-0.07324,0.49438
-0.06714,0.47974
-0.06958,0.46021
-0.06958,0.46021
-0.06836,0.43335
-0.05615,0.43579
-0.03906,0.41992
-0.05005,0.40039
-0.07568,0.41016
-0.08911,0.39551
-0.09033,0.36743
-0.07202,0.34546
-0.06104,0.33447
-0.04395,0.3186
-0.03418,0.29541
-0.04761,0.27588
-0.04761,0.26611
-0.06836,0.26245
-0.05737,0.24658
-0.04517,0.20508
-0.04028,0.18799
-0.04395,0.19775
-0.06836,0.16846
-0.05005,0.16479
-0.03662,0.14282
-0.03662,0.12329
-0.05249,0.13306
-0.07202,0.11841
-0.04639,0.10742
-0.01343,0.09277
0.00854,0.1001
0.02441,0.09521
0.0061,0.07813
0.01343,0.09033
0.01587,0.0769
0.02808,0.09155
0.02197,0.06958
0.00854,0.07324
-0.01953,0.06226
-0.0354,0.05127
-0.05127,0.06714
-0.06348,0.05371
-0.08179,0.04272
-0.07324,0.0354
-0.05737,0.00244
-0.05005,-0.01343
-0.06348,-0.01221
-0.09399,-0.04272
-0.09766,-0.05859
-0.07446,-0.0708
-0.06958,-0.07446
-0.05859,-0.09399
-0.04639,-0.10742
-0.01709,-0.13794
0.01465,-0.14404
0.07324,-0.16602
0.16113,-0.18066
0.21118,-0.21606
0.20874,-0.22339
0.12939,-0.26123
0.00732,-0.26367
-0.1062,-0.28809
-0.177,-0.31738
-0.18066,-0.33325
-0.16113,-0.33203
-0.13306,-0.35767
-0.09888,-0.35767
-0.06592,-0.38452
-0.01953,-0.41016
-0.01343,-0.40649
-0.02808,-0.43823
-0.04028,-0.43335
-0.04272,-0.44312
-0.03662,-0.45898
-0.04395,-0.48096
-0.05615,-0.49438
-0.04883,-0.49683
-0.03174,-0.5188
0.00122,-0.52368
0.01343,-0.55176
0.01099,-0.57373
0.01343,-0.59082
0.0061,-0.58838
0.01343,-0.59692
0.02197,-0.60547
0.03784,-0.62744
0.03784,-0.63721
0.03784,-0.65552
0.04517,-0.67505
0.03662,-0.67993
0.03052,-0.6665
0.03296,-0.6897
0.04272,-0.67993
0.07202,-0.67505
0.09888,-0.67139
0.11475,-0.64575
0.12817,-0.61401
0.11108,-0.57861
0.10498,-0.53223
0.11353,-0.49072
0.12085,-0.41382
0.12939,-0.34302
0.11475,-0.24658
0.09644,-0.16846
0.08667,-0.1001
0.0769,0.00366
0.08301,0.08789
0.06592,0.16235
0.03052,0.22705
0.00244,0.31006
-0.02075,0.3833
-0.01221,0.43945
-0.03296,0.46875
-0.06226,0.52124
-0.08423,0.56152
-0.09644,0.58594
-0.08667,0.60547
-0.09155,0.59326
-0.09399,0.60181
-0.10376,0.59814
-0.12939,0.61035
-0.13306,0.5835
-0.13672,0.59204
-0.12207,0.56885
-0.10254,0.5481
-0.10864,0.52979
-0.1062,0.51514
-0.12329,0.5188
-0.12085,0.50049
-0.12573,0.49072
-0.12817,0.46021
-0.11353,0.46509
-0.09277,0.45288
-0.06714,0.44189
-0.0647,0.41626
-0.07324,0.40894
-0.09033,0.42114
-0.11108,0.40161
-0.10742,0.40649
-0.08789,0.3772
-0.10254,0.38208
-0.12085,0.36621
-0.13428,0.354
-0.1123,0.32227
-0.07813,0.30884
-0.05249,0.28564
-0.05371,0.28564
-0.07935,0.2417
-0.09521,0.22827
-0.08789,0.22339
-0.06714,0.2002
-0.04395,0.17456
-0.05005,0.15381
-0.0415,0.14404
-0.05493,0.13794
-0.08911,0.11841
-0.1001,0.10376
-0.09033,0.09033
-0.05493,0.07568
-0.01221,0.07202
-0.0061,0.06226
0.00122,0.05737
-0.01587,0.05493
-0.02808,0.05005
-0.01709,0.06348
-0.00122,0.04639
-0.00488,0.03906
-0.03174,0.03174
-0.07813,0.02686
-0.10254,0.03174
-0.1062,0.0293
-0.08057,0.02686
-0.06592,-0.00122
-0.05249,-0.01587
-0.06348,-0.01221
-0.0769,-0.01831
-0.09888,-0.05127
-0.11108,-0.0647
-0.09521,-0.08179
-0.05981,-0.08057
-0.03418,-0.09521
-0.01831,-0.12939
-0.00977,-0.15503
0.04517,-0.16602
0.11963,-0.18921
0.19653,-0.2063
0.22827,-0.2002
0.20508,-0.23926
0.10376,-0.23682
-0.02075,-0.26001
-0.13672,-0.28931
-0.18555,-0.28931
-0.17456,-0.32837
-0.13916,-0.33447
-0.09399,-0.36377
-0.0647,-0.37354
-0.04028,-0.39063
-0.03906,-0.39063
-0.0293,-0.41016
-0.02319,-0.44067
-0.02441,-0.45288
-0.02319,-0.47119
-0.02686,-0.46387
-0.01709,-0.49927
-0.00122,-0.49072
0.00732,-0.5249
0.01343,-0.53101
0.01099,-0.52856
0.01587,-0.55908
0.01343,-0.55908
0.02197,-0.57617
0.02197,-0.57861
0.03784,-0.60303
0.0415,-0.61646
0.04028,-0.63477
0.02319,-0.62622
0.02563,-0.64453
0.02075,-0.64209
0.04395,-0.65552
0.06348,-0.66162
0.0708,-0.68481
0.09033,-0.67383
0.10376,-0.66528
0.15137,-0.625
0.17334,-0.60669
0.16113,-0.57983
0.13794,-0.52856
0.10864,-0.47119
0.10864,-0.40161
0.12085,-0.31616
0.12939,-0.2356
0.13184,-0.15381
0.11963,-0.08301
0.09644,0.0061
0.08789,0.08545
0.0708,0.16602
0.07324,0.22583
0.04761,0.30884
0.04272,0.34912
0.0354,0.4126
0.01221,0.46143
-0.01709,0.50659
-0.05249,0.52368
-0.07324,0.54932
-0.07568,0.5603
-0.07935,0.56519
-0.08667,0.58105
-0.09644,0.56763
-0.10376,0.55542
-0.10132,0.57129
-0.09644,0.54688
-0.08301,0.52856
-0.07568,0.52002
-0.08057,0.49805
-0.07202,0.48218
-0.07568,0.49072
-0.06226,0.46265
-0.06104,0.44189
-0.06592,0.43579
-0.06958,0.41626
-0.07568,0.41748
-0.07202,0.40161
-0.0708,0.40161
-0.06714,0.40527
-0.06592,0.37598
-0.05615,0.37354
-0.06104,0.37842
-0.06714,0.36987
-0.07446,0.35889
-0.06104,0.32104
-0.05249,0.32715
-0.04395,0.30273
-0.05859,0.29053
-0.0708,0.27588
-0.07324,0.23438
-0.06714,0.2356
-0.06592,0.19775
-0.07446,0.20264
-0.06226,0.16846
-0.05249,0.16479
-0.04028,0.12939
-0.05615,0.12695
-0.0769,0.09766
-0.08545,0.08789
-0.07935,0.0769
-0.06592,0.07935
-0.05371,0.05981
-0.0415,0.07324
-0.03418,0.04395
-0.03906,0.04028
-0.05615,0.04028
-0.05371,0.04395
-0.02075,0.02686
0.01343,0.02441
0.0354,0.01343
0.02808,0.00732
0.01343,0.02075
-0.00854,0.0061
-0.01343,-0.00488
-0.01465,-0.00244
-0.01343,-0.01221
-0.02686,-0.04639
-0.04395,-0.05493
-0.06348,-0.0708
-0.06226,-0.06348
-0.0647,-0.1001
-0.05737,-0.10742
-0.0647,-0.13062
-0.06592,-0.14404
-0.07813,-0.13794
-0.08301,-0.15747
-0.06104,-0.17578
-0.05859,-0.2002
-0.06836,-0.21851
-0.08789,-0.25513
-0.08423,-0.24902
-0.04272,-0.2832
0,-0.30762
0.06226,-0.30396
0.13428,-0.32715
0.20874,-0.34912
0.2356,-0.35522
0.18433,-0.37354
0.06104,-0.39429
-0.06714,-0.41504
-0.15503,-0.41992
-0.16357,-0.43579
-0.12817,-0.47363
-0.08423,-0.4834
-0.0708,-0.47607
-0.07324,-0.50049
-0.06226,-0.50781
-0.05493,-0.53223
-0.02441,-0.55786
-0.00732,-0.56763
-0.00854,-0.56274
-0.01221,-0.59326
-0.02075,-0.58594
-0.00122,-0.61768
0.01709,-0.60913
0.01831,-0.62988
0.01709,-0.65552
0,-0.65552
0.00122,-0.67993
0.01831,-0.69092
0.03418,-0.70313
0.04395,-0.7019
0.03052,-0.6958
0.02563,-0.71899
0.04883,-0.73975
0.07568,-0.74341
0.09521,-0.75195
0.07446,-0.76904
0.05737,-0.77393
0.04639,-0.77881
0.05737,-0.78003
0.06958,-0.77393
0.08423,-0.73853
0.11475,-0.70679
0.13062,-0.67627
0.13428,-0.64819
0.13672,-0.57495
0.13672,-0.51636
0.14893,-0.43701
0.14893,-0.36499
0.12695,-0.28442
0.1062,-0.20142
0.10376,-0.12573
0.11108,-0.03784
0.12207,0.05493
0.09766,0.11841
0.0708,0.18921
0.04028,0.25024
0.0293,0.30762
0.02197,0.37842
0.00854,0.41748
-0.02197,0.43701
-0.05737,0.47852
-0.07202,0.50049
-0.06226,0.49194
-0.05371,0.49927
-0.06714,0.50171
-0.08545,0.5188
-0.10376,0.49683
-0.09155,0.50537
-0.07935,0.49683
-0.06836,0.46997
-0.06714,0.46021
-0.07568,0.4541
-0.08057,0.43457
-0.09521,0.42603
-0.08423,0.41138
-0.06104,0.40527
-0.04028,0.37842
-0.05005,0.37231
-0.06836,0.36133
-0.0769,0.354
-0.05737,0.36499
-0.04761,0.36133
-0.05493,0.34424
-0.07324,0.32593
-0.07568,0.33691
-0.06226,0.32593
-0.05371,0.30273
-0.04517,0.30762
-0.04883,0.28687
-0.04639,0.27832
-0.06104,0.25391
-0.05859,0.24048
-0.05615,0.20874
-0.04639,0.18921
-0.0415,0.18433
-0.05737,0.15381
-0.05371,0.13916
-0.04028,0.13794
-0.04272,0.11353
-0.04272,0.09766
-0.05615,0.07935
-0.04761,0.09277
-0.03784,0.06348
-0.03418,0.05005
-0.05371,0.05371
-0.06226,0.04639
-0.05615,0.05493
-0.05127,0.0293
-0.04761,0.0354
-0.06836,0.01831
-0.06104,0.01465
-0.0415,0.02808
-0.01343,0.01221
-0.00732,0.01587
-0.0061,0.01343
-0.01343,-0.00977
-0.01221,-0.01831
0.0061,-0.02686
0.02197,-0.03296
0.04272,-0.05249
0.03906,-0.05737
0.04028,-0.07935
0.03174,-0.09033
0.02563,-0.1062
0.00854,-0.09766
-0.02075,-0.13916
-0.04761,-0.14648
-0.05005,-0.16724
-0.03418,-0.16846
-0.02686,-0.18433
-0.04272,-0.20874
-0.06714,-0.22949
-0.08545,-0.26001
-0.08911,-0.25635
-0.06958,-0.29419
-0.04639,-0.29419
-0.02319,-0.32959
-0.01099,-0.32471
-0.01343,-0.34912
-0.00854,-0.3833
-0.01831,-0.39185
0.01587,-0.39307
0.08057,-0.43091
0.16602,-0.43335
0.23682,-0.44312
0.23804,-0.47974
0.18311,-0.47852
0.06958,-0.50415
-0.0354,-0.50049
-0.11719,-0.53101
-0.15747,-0.54688
-0.14893,-0.55786
-0.1062,-0.54565
-0.06958,-0.56519
-0.03418,-0.57495
-0.03052,-0.60547
-0.04272,-0.59082
-0.03296,-0.625
-0.02808,-0.62256
0.01099,-0.62256
0.03662,-0.66284
0.0354,-0.67261
0.01465,-0.65918
-0.01099,-0.67139
0.01221,-0.68481
0.01587,-0.69458
0.01099,-0.69824
-0.00488,-0.71167
-0.00854,-0.72266
0.0293,-0.73486
0.05737,-0.7605
0.06958,-0.74829
0.03906,-0.77759
0.0293,-0.78613
0.04639,-0.7666
0.08545,-0.78491
0.1062,-0.78003
0.10986,-0.78979
0.09033,-0.80688
0.08301,-0.79224
0.07202,-0.78003
0.08911,-0.75195
0.10864,-0.74829
0.11475,-0.69946
0.10498,-0.64819
0.09766,-0.57861
0.12207,-0.52979
0.1355,-0.45654
0.12939,-0.36255
0.11719,-0.27954
0.10986,-0.19653
0.11963,-0.10986
0.12817,-0.03052
0.1062,0.02563
0.09644,0.11963
0.07813,0.17212
0.04883,0.23193
0.02563,0.30029
-0.00977,0.34058
-0.02075,0.39917
-0.04028,0.43091
-0.04272,0.46021
-0.0415,0.47607
-0.05371,0.46997
-0.06714,0.47119
-0.09033,0.48706
-0.10132,0.48584
-0.1001,0.46509
-0.08423,0.46631
-0.08301,0.44922
-0.09033,0.44434
-0.08667,0.44434
-0.08179,0.4126
-0.05981,0.42358
-0.04883,0.40894
-0.05615,0.39795
-0.06348,0.39185
-0.08423,0.36133
-0.08911,0.37354
-0.09033,0.36865
-0.07813,0.35645
-0.05981,0.3418
-0.05249,0.34424
-0.05005,0.33447
-0.04028,0.34424
-0.04272,0.32837
-0.0415,0.31982
-0.04761,0.31372
-0.04395,0.31128
-0.05371,0.2832
-0.04639,0.2771
-0.0415,0.25146
-0.04883,0.2356
-0.06226,0.23926
-0.06958,0.19897
-0.05981,0.18188
-0.05005,0.16846
-0.04761,0.1709
-0.06226,0.15015
-0.05737,0.12573
-0.0647,0.13306
-0.05127,0.10498
-0.04639,0.10498
-0.0415,0.1001
-0.04883,0.10376
-0.05371,0.07324
-0.06226,0.0769
-0.06714,0.06958
-0.07324,0.07446
-0.07813,0.05615
-0.07202,0.07324
-0.06592,0.06958
-0.05371,0.06348
-0.05859,0.05737
-0.04639,0.04395
-0.03784,0.03418
-0.02441,0.03906
-0.00854,0.00732
-0.00732,0.02197
-0.00366,-0.00732
-0.01587,0
-0.01953,-0.02319
-0.00122,-0.04272
0.00732,-0.06348
0.01221,-0.05737
-0.00488,-0.07935
0.00366,-0.09277
0.02197,-0.12817
0.02441,-0.14282
-0.01221,-0.13672
-0.05005,-0.16113
-0.05859,-0.17334
-0.05859,-0.18921
-0.04883,-0.21362
-0.04517,-0.24902
-0.05005,-0.25391
-0.05859,-0.26123
-0.06714,-0.28198
-0.07446,-0.30518
-0.06714,-0.31128
-0.05859,-0.33203
-0.04883,-0.36499
-0.02686,-0.37354
-0.03418,-0.40161
-0.02319,-0.41382
0.00122,-0.42603
0.08423,-0.42236
0.19897,-0.45166
0.26245,-0.46143
0.26367,-0.47485
0.17578,-0.50781
0.04639,-0.5249
-0.0708,-0.53467
-0.15015,-0.52979
-0.17212,-0.56396
-0.13184,-0.5542
-0.09033,-0.5896
-0.04272,-0.5835
-0.02319,-0.60303
-0.02075,-0.625
-0.0293,-0.62134
-0.02075,-0.64941
-0.02441,-0.65308
-0.02808,-0.67383
-0.03174,-0.67993
-0.03418,-0.66772
-0.01465,-0.67627
-0.00488,-0.68359
0.01465,-0.69946
0.02808,-0.70068
0.02441,-0.71655
0.01221,-0.74341
0.00732,-0.7373
0.02197,-0.74341
0.03906,-0.75073
0.05127,-0.75317
0.06348,-0.76538
0.07935,-0.79712
0.07324,-0.78369
0.07568,-0.78491
0.0647,-0.81299
0.0708,-0.82275
0.0647,-0.81787
0.06348,-0.80444
0.08423,-0.79346
0.09399,-0.80078
0.09521,-0.78003
0.08911,-0.74951
0.09399,-0.7019
0.12085,-0.65552
0.13306,-0.59326
0.14893,-0.51147
0.14526,-0.45532
0.13794,-0.3479
0.11963,-0.27466
0.09033,-0.18311
0.08301,-0.11475
0.10498,-0.0354
0.09033,0.06348
0.0647,0.13306
0.00854,0.18433
-0.01099,0.26733
-0.01709,0.31494
-0.02563,0.35156
-0.01953,0.39917
-0.02441,0.4248
-0.03662,0.46753
-0.05005,0.47119
-0.06592,0.49927
-0.07202,0.50781
-0.0708,0.50415
-0.08545,0.49561
-0.09033,0.47729
-0.11353,0.47852
-0.10376,0.45288
-0.09766,0.4541
-0.08423,0.4248
-0.07446,0.41016
-0.06958,0.4187
-0.0708,0.39063
-0.08545,0.37476
-0.09644,0.3772
-0.08789,0.35278
-0.08545,0.36377
-0.06592,0.354
-0.05981,0.34424
-0.07202,0.33081
-0.06592,0.31494
-0.05493,0.31982
-0.05127,0.3125
-0.05737,0.29907
-0.07813,0.29663
-0.08301,0.2771
-0.0708,0.26611
-0.06226,0.27832
-0.05737,0.26001
-0.0647,0.22705
-0.05371,0.21851
-0.0647,0.2002
-0.07324,0.20996
-0.08057,0.18066
-0.06592,0.16602
-0.05981,0.15381
-0.05615,0.14526
-0.05615,0.14771
-0.06836,0.12085
-0.0769,0.1062
-0.07324,0.10254
-0.07324,0.10132
-0.0708,0.11353
-0.0708,0.09033
-0.06958,0.08911
-0.05005,0.09521
-0.05371,0.10742
-0.04517,0.1062
-0.04883,0.08057
-0.02808,0.08301
-0.01831,0.09888
-0.04272,0.09766
-0.06714,0.07446
-0.06958,0.08789
-0.06592,0.07813
-0.03662,0.08057
-0.0293,0.05005
-0.00244,0.0415
0.01587,0.03052
0.0061,0.03784
-0.00366,0.02075
-0.01465,0.00854
-0.00854,-0.01953
0.00366,-0.01099
0.00366,-0.04517
-0.01709,-0.05127
-0.05005,-0.08057
-0.07935,-0.0769
-0.09033,-0.1123
-0.08545,-0.10742
-0.07324,-0.12085
-0.0769,-0.16357
-0.07568,-0.1709
-0.08667,-0.17456
-0.07446,-0.18433
-0.07324,-0.20386
-0.05615,-0.21851
-0.04028,-0.25024
-0.03296,-0.25146
-0.02075,-0.26733
0.01953,-0.29663
0.06714,-0.29541
0.14282,-0.30762
0.19043,-0.32104
0.18921,-0.33691
0.12695,-0.36987
0,-0.36255
-0.10254,-0.3894
-0.14771,-0.38696
-0.14893,-0.39551
-0.12817,-0.41382
-0.12573,-0.43579
-0.10132,-0.45288
-0.0769,-0.46509
-0.02686,-0.45776
-0.01587,-0.47363
-0.00854,-0.47363
-0.01221,-0.50537
-0.02563,-0.49194
-0.02197,-0.50049
-0.00488,-0.50659
0.01099,-0.54077
0.02197,-0.54443
0.00977,-0.54565
-0.00122,-0.54688
-0.00732,-0.54565
0.01099,-0.56274
0.05371,-0.57373
0.05127,-0.57617
0.04028,-0.60425
0.01221,-0.60059
0.01343,-0.60669
0.03906,-0.61035
0.05737,-0.61646
0.0647,-0.61279
0.06836,-0.64697
0.05615,-0.65063
0.06958,-0.65063
0.08057,-0.64697
0.09521,-0.61646
0.1123,-0.62744
0.11719,-0.58105
0.12329,-0.56641
0.12085,-0.52856
0.11719,-0.47729
0.11108,-0.40405
0.12085,-0.33203
0.13428,-0.26489
0.13306,-0.18677
0.11353,-0.11597
0.09033,-0.01099
0.08789,0.06104
0.1001,0.1355
0.09766,0.23193
0.06958,0.3125
0.03662,0.36499
0.01343,0.44312
-0.00122,0.49805
-0.01465,0.55176
-0.03174,0.59937
-0.04028,0.62744
-0.05981,0.65674
-0.04639,0.68115
-0.06226,0.69214
-0.07446,0.69824
-0.09277,0.7019
-0.08545,0.69336
-0.0647,0.68237
-0.0647,0.6604
-0.08789,0.65674
-0.08179,0.63843
-0.08301,0.62744
-0.06836,0.62378
-0.06714,0.60181
-0.0647,0.58472
-0.06348,0.57495
-0.06348,0.56274
-0.06836,0.57251
-0.05981,0.5542
-0.05981,0.54932
-0.05371,0.55176
-0.06714,0.54565
-0.05249,0.53589
-0.04272,0.51392
-0.05493,0.52246
-0.05981,0.50415
-0.07324,0.50537
-0.05493,0.48096
-0.04272,0.47119
-0.0354,0.44678
-0.03174,0.44922
-0.04028,0.41504
-0.0415,0.39795
-0.04517,0.38696
-0.04639,0.36377
-0.04639,0.3479
-0.04761,0.32349
-0.02319,0.32104
-0.02197,0.29541
-0.05249,0.2771
-0.07813,0.2832
-0.06714,0.25269
-0.01587,0.25635
-0.02197,0.25146
-0.03662,0.24048
-0.0708,0.23804
-0.06348,0.23315
-0.03906,0.22705
-0.04395,0.21851
-0.05493,0.2124
-0.04639,0.20386
-0.03052,0.19287
-0.01221,0.2063
-0.03052,0.18921
-0.04639,0.20386
-0.0708,0.19775
-0.05737,0.18677
-0.04761,0.16235
-0.03906,0.14771
-0.01953,0.15747
0.00366,0.14282
0.02197,0.11963
0.02319,0.11963
0.01343,0.11353
0.00977,0.10254
0.01099,0.0769
0.01343,0.05737
0.01099,0.04883
0.00977,0.03296
0.01831,0.01221
0.02197,-0.00732
-0.01221,-0.01343
-0.04028,-0.05493
-0.0647,-0.07446
-0.05615,-0.06836
-0.03906,-0.10986
-0.03906,-0.10742
-0.0293,-0.13184
-0.04639,-0.14404
-0.04761,-0.16724
-0.05493,-0.19165
-0.05615,-0.20508
-0.05737,-0.24292
-0.05493,-0.24658
-0.04639,-0.27954
-0.02686,-0.29297
-0.00122,-0.31128
0.04028,-0.3125
0.09766,-0.33691
0.177,-0.34668
0.22461,-0.36987
0.21729,-0.38574
0.15869,-0.3894
0.03906,-0.41138
-0.0708,-0.40405
-0.13062,-0.42847
-0.12817,-0.43091
-0.09277,-0.44922
-0.07202,-0.47852
-0.06226,-0.48706
-0.05981,-0.47607
-0.05005,-0.49316
-0.03662,-0.50171
-0.02319,-0.50659
-0.02319,-0.52002
-0.02197,-0.54565
-0.02808,-0.55176
-0.01831,-0.55786
-0.0061,-0.56641
0.00732,-0.5957
0.02319,-0.58105
0.02686,-0.60913
0.02808,-0.60059
0.02686,-0.60669
0.01465,-0.63721
0.01221,-0.62866
0.0061,-0.62988
0.01831,-0.64941
0.04028,-0.67139
0.05371,-0.67749
0.05615,-0.66895
0.05005,-0.6958
0.05493,-0.69092
0.08301,-0.6958
0.09155,-0.68848
0.09155,-0.68237
0.08423,-0.69092
0.1001,-0.67749
0.11475,-0.63354
0.10864,-0.58105
0.1123,-0.55176
0.11475,-0.46143
0.12817,-0.40039
0.13184,-0.32104
0.12939,-0.22705
0.14282,-0.14282
0.12817,-0.06104
0.11353,0.04395
0.1001,0.12207
0.07568,0.21973
0.07568,0.31006
0.05859,0.39429
0.04517,0.45654
0.02808,0.52246
0.01709,0.60181
-0.00366,0.65063
-0.01709,0.67139
-0.03052,0.72388
-0.04517,0.72632
-0.06226,0.76172
-0.07568,0.75684
-0.08179,0.7605
-0.06592,0.77271
-0.05493,0.77515
-0.04761,0.74829
-0.07202,0.75439
-0.10132,0.72632
-0.11475,0.73486
-0.11108,0.70435
-0.08667,0.69458
-0.05981,0.69336
-0.03418,0.6604
-0.04028,0.67139
-0.07935,0.64331
-0.10742,0.64575
-0.09766,0.64087
-0.07202,0.63843
-0.04639,0.62012
-0.05615,0.625
-0.05615,0.62134
-0.04272,0.61401
-0.03662,0.59326
-0.04395,0.60425
-0.0708,0.58594
-0.08545,0.59082
-0.0708,0.5603
-0.05615,0.56274
-0.04028,0.53955
-0.05005,0.53345
-0.0354,0.49927
-0.00854,0.50171
-0.00977,0.47363
-0.03662,0.46753
-0.0708,0.43213
-0.09033,0.40771
-0.07324,0.39673
-0.05737,0.39185
-0.03906,0.37842
-0.03296,0.34424
-0.04028,0.3479
-0.05005,0.34424
-0.05005,0.33203
-0.03906,0.29907
-0.0293,0.29907
-0.0415,0.30273
-0.05615,0.28809
-0.0647,0.26489
-0.05005,0.25757
-0.03906,0.2478
-0.03296,0.26123
-0.03418,0.25269
-0.04395,0.24536
-0.03784,0.23315
-0.03784,0.22461
-0.0415,0.21851
-0.0293,0.18433
-0.03296,0.19531
-0.02197,0.15991
-0.02319,0.15747
-0.02686,0.14282
-0.01831,0.1355
-0.01099,0.09766
0.01221,0.10376
0.0293,0.07813
0.03662,0.05493
0.0354,0.03906
0.01831,0.02563
0.02075,-0.00366
0.01709,-0.01099
0.00732,-0.0293
-0.0061,-0.06958
-0.0061,-0.0769
-0.01709,-0.09888
-0.02075,-0.10498
-0.04761,-0.1355
-0.05493,-0.16846
-0.04883,-0.16357
-0.03052,-0.20264
-0.02441,-0.22339
-0.04272,-0.22217
-0.05371,-0.2417
-0.06714,-0.27588
-0.05737,-0.2771
-0.05981,-0.29541
-0.05737,-0.30396
-0.05249,-0.34668
-0.03296,-0.33813
0,-0.37598
0.04639,-0.39307
0.12329,-0.40771
0.21362,-0.41626
0.25024,-0.4248
0.23438,-0.44556
0.13672,-0.46631
0.02197,-0.48096
-0.08667,-0.49438
-0.14282,-0.4834
-0.13916,-0.49683
-0.1001,-0.50659
-0.07935,-0.54077
-0.05493,-0.53223
-0.06836,-0.55542
-0.05127,-0.5603
-0.04883,-0.57617
-0.02563,-0.56885
-0.00244,-0.58105
0,-0.59692
0.0061,-0.60181
0.00366,-0.63354
0.01221,-0.64331
0.00977,-0.65063
0,-0.65674
-0.0061,-0.64087
0.00488,-0.65063
0.01953,-0.66895
0.03052,-0.6665
0.02319,-0.68359
0.02808,-0.69824
0.04639,-0.69214
0.05005,-0.72144
0.04395,-0.71655
0.03418,-0.73242
0.04761,-0.73853
0.06592,-0.74219
0.09766,-0.73608
0.12207,-0.76294
0.10864,-0.74707
0.09033,-0.72876
0.06592,-0.7019
0.08423,-0.66895
0.12573,-0.65063
0.13916,-0.60181
0.14282,-0.52002
0.12817,-0.44922
0.1355,-0.38574
0.13062,-0.29297
0.11963,-0.19775
0.1123,-0.10742
0.12207,-0.00244
0.11353,0.1001
0.10986,0.18677
0.08667,0.29053
0.05981,0.37354
0.0293,0.44067
0.0061,0.50049
-0.01953,0.57983
-0.03418,0.61157
-0.03296,0.65308
-0.03296,0.70679
-0.04517,0.72876
-0.0647,0.72998
-0.09033,0.7605
-0.07813,0.76172
-0.06592,0.75928
-0.0415,0.74951
-0.04639,0.75195
-0.06104,0.74463
-0.07935,0.71045
-0.08545,0.69824
-0.08911,0.67993
-0.07324,0.68115
-0.07202,0.65796
-0.06836,0.65063
-0.06836,0.64209
-0.06104,0.62134
-0.06836,0.62378
-0.0647,0.59326
-0.06714,0.61035
-0.06592,0.59692
-0.05859,0.57617
-0.06104,0.57129
-0.05127,0.57983
-0.04517,0.55908
-0.05737,0.56274
-0.05981,0.53955
-0.05249,0.53345
-0.03784,0.52124
-0.04028,0.50171
-0.05737,0.50171
-0.06958,0.4895
-0.04761,0.46753
-0.04639,0.43701
-0.02808,0.41992
-0.04028,0.40039
-0.05493,0.39551
-0.04272,0.36743
-0.04883,0.33447
-0.04639,0.33447
-0.07446,0.31494
-0.08789,0.29175
-0.08301,0.24902
-0.05981,0.23438
-0.03906,0.22827
-0.03784,0.2063
-0.04395,0.19409
-0.05005,0.1709
-0.05615,0.15259
-0.04883,0.15381
-0.0354,0.15259
-0.03906,0.13672
-0.02686,0.11108
-0.03784,0.12573
-0.04883,0.11841
-0.07202,0.10864
-0.07446,0.1001
-0.05371,0.09033
-0.04639,0.06104
-0.04395,0.05371
-0.05127,0.04761
-0.06226,0.02563
-0.05859,0.02441
-0.05005,0.00854
-0.03052,-0.00366
-0.02197,-0.01953
-0.01343,-0.03418
-0.01465,-0.0647
-0.03052,-0.08057
-0.01221,-0.07935
-0.02563,-0.11719
-0.03174,-0.12207
-0.02441,-0.15015
-0.0061,-0.16968
0.02319,-0.17456
0.03906,-0.19897
0.02808,-0.22583
0.02319,-0.22095
0.0061,-0.26123
0.02075,-0.25879
0.02563,-0.29785
0.01953,-0.29907
-0.0061,-0.32837
-0.04272,-0.33203
-0.06592,-0.34668
-0.06592,-0.36499
-0.0647,-0.37964
-0.06104,-0.40039
-0.06104,-0.43213
-0.05859,-0.44678
-0.04395,-0.44312
-0.03662,-0.47974
-0.0293,-0.48096
-0.05127,-0.50049
-0.05005,-0.50415
-0.04883,-0.53589
-0.01587,-0.55298
0.02319,-0.56396
0.07568,-0.57739
0.15747,-0.5835
0.2124,-0.5957
0.23193,-0.60547
0.18188,-0.62744
0.0769,-0.61768
-0.04272,-0.62744
-0.11841,-0.65918
-0.14038,-0.65796
-0.11475,-0.67993
-0.08057,-0.68237
-0.05371,-0.67505
-0.04272,-0.70679
-0.05493,-0.72021
-0.05249,-0.7019
-0.03784,-0.7373
-0.00488,-0.74463
0.00854,-0.75195
-0.00122,-0.7605
-0.02441,-0.76172
-0.03906,-0.76904
-0.04272,-0.77393
-0.01831,-0.78369
0.00122,-0.7959
0.04395,-0.77637
0.05127,-0.80444
0.04395,-0.79346
0.02686,-0.81543
0.02563,-0.802
0.03052,-0.81787
0.05737,-0.83984
0.05615,-0.83374
0.05493,-0.84106
0.05127,-0.83862
0.04272,-0.87158
0.04395,-0.87158
0.05127,-0.8667
0.0708,-0.85815
0.10132,-0.8667
0.10254,-0.84106
0.09033,-0.82397
0.08301,-0.79834
0.10986,-0.75195
0.11963,-0.70068
0.12573,-0.63232
0.12329,-0.55176
0.13306,-0.45166
0.13672,-0.35278
0.1416,-0.26978
0.10742,-0.16479
0.08179,-0.06836
0.07568,0.04517
0.06226,0.13672
0.04395,0.23926
0.04517,0.32471
0.02441,0.39551
0.04028,0.49316
0.01465,0.53589
-0.00366,0.60791
-0.02808,0.64453
-0.05859,0.68237
-0.0708,0.70923
-0.08423,0.73242
-0.07935,0.72998
-0.0769,0.75439
-0.09399,0.75317
-0.1001,0.75439
-0.09033,0.72388
-0.07568,0.70923
-0.07446,0.69824
-0.08789,0.69092
-0.08179,0.67505
-0.08423,0.6543
-0.07324,0.62622
-0.07446,0.61279
-0.07935,0.61157
-0.07324,0.58594
-0.08545,0.5835
-0.08423,0.57739
-0.07568,0.5481
-0.06958,0.53589
-0.06348,0.52979
-0.06714,0.54565
-0.07202,0.53345
-0.05493,0.52734
-0.04883,0.50415
-0.05249,0.49561
-0.08423,0.49194
-0.08911,0.47119
-0.0708,0.47485
-0.05493,0.43701
-0.04639,0.44189
-0.05371,0.40649
-0.06104,0.38574
-0.05371,0.36743
-0.06226,0.35889
-0.05005,0.33691
-0.05249,0.33081
-0.07324,0.30518
-0.07202,0.30518
-0.08423,0.27954
-0.06104,0.27344
-0.05371,0.27466
-0.05859,0.26245
-0.08057,0.25757
-0.08179,0.22827
-0.05737,0.24658
-0.04517,0.22949
-0.04517,0.23682
-0.06714,0.23193
-0.08057,0.20508
-0.0769,0.21973
-0.06104,0.20142
-0.05371,0.19531
-0.04272,0.19043
-0.04028,0.20142
-0.04395,0.2002
-0.05005,0.18188
-0.05249,0.18433
-0.05371,0.15747
-0.06592,0.15869
-0.06714,0.14282
-0.05249,0.11841
-0.03418,0.11597
-0.01709,0.11353
-0.02075,0.09155
-0.01099,0.06958
-0.00244,0.05981
-0.01099,0.0354
-0.03174,0.01831
-0.04395,-0.00854
-0.02075,-0.0293
0.00732,-0.05249
0.02075,-0.07202
0.01709,-0.07324
0.02197,-0.10742
0.03784,-0.13428
0.0354,-0.14404
0.01587,-0.16479
-0.01709,-0.19775
-0.04883,-0.19409
-0.05615,-0.23315
-0.05981,-0.25269
-0.05859,-0.27222
-0.06592,-0.26978
-0.08057,-0.28564
-0.08057,-0.3125
-0.07568,-0.34058
-0.05981,-0.33569
-0.04395,-0.37354
-0.03174,-0.36621
-0.03662,-0.39551
-0.02319,-0.41016
-0.00366,-0.41138
0.00122,-0.44189
0.03174,-0.45044
0.07813,-0.45654
0.15259,-0.46265
0.17944,-0.50171
0.16113,-0.51636
0.08911,-0.5188
0.00366,-0.52124
-0.08545,-0.53101
-0.16357,-0.54443
-0.15869,-0.57251
-0.12207,-0.56885
-0.0647,-0.60059
-0.03784,-0.61279
-0.04272,-0.62256
-0.0354,-0.63477
-0.02197,-0.64575
-0.00366,-0.6543
0.01221,-0.63721
0.01099,-0.64453
0.01953,-0.66162
0.01953,-0.67139
0.02563,-0.67627
0.01587,-0.67139
0,-0.70435
-0.00854,-0.6897
-0.0061,-0.69214
0.01099,-0.72021
0.02563,-0.70313
0.03418,-0.72754
0.06226,-0.71777
0.0769,-0.73975
0.08545,-0.74829
0.06836,-0.73486
0.06836,-0.73975
0.08301,-0.76294
0.08789,-0.74463
0.08301,-0.76904
0.08789,-0.75195
0.09399,-0.75439
0.1001,-0.76538
0.09644,-0.72876
0.08423,-0.73486
0.1001,-0.70557
0.11719,-0.65796
0.13794,-0.60547
0.15381,-0.5249
0.16357,-0.45776
0.14282,-0.36743
0.11597,-0.28076
0.09766,-0.20752
0.09399,-0.08545
0.10742,-0.00732
0.11353,0.10986
0.09644,0.2124
0.06592,0.30396
0.03296,0.37598
0.02197,0.46143
0.01221,0.53223
0.01099,0.59814
-0.00366,0.65674
-0.0293,0.70313
-0.04028,0.76538
-0.06592,0.77759
-0.05981,0.79956
-0.04272,0.80811
-0.04639,0.81787
-0.05737,0.81787
-0.0708,0.81177
-0.05859,0.80078
-0.06104,0.79468
-0.08301,0.76782
-0.08179,0.75195
-0.0708,0.72998
-0.05005,0.72754
-0.05127,0.7019
-0.07202,0.6665
-0.07446,0.6665
-0.06714,0.64819
-0.05859,0.62988
-0.04639,0.61646
-0.05615,0.60547
-0.0647,0.5835
-0.06592,0.57129
-0.04272,0.55786
-0.0293,0.54321
-0.0354,0.54321
-0.05127,0.53223
-0.06348,0.51636
-0.05249,0.50415
-0.04028,0.50171
-0.04028,0.50293
-0.02441,0.4834
-0.00732,0.46387
-0.02441,0.43701
-0.05005,0.42603
-0.08423,0.42603
-0.08057,0.40039
-0.04028,0.39673
-0.02686,0.38086
-0.0293,0.36865
-0.06348,0.33081
-0.06714,0.32715
-0.06714,0.33325
-0.05615,0.31982
-0.05371,0.32593
-0.04639,0.3125
-0.03174,0.29297
-0.0354,0.31006
-0.05127,0.29175
-0.05981,0.29297
-0.05615,0.28564
-0.04028,0.29053
-0.0354,0.29785
-0.05127,0.29907
-0.06348,0.27588
-0.06592,0.29419
-0.04272,0.26489
-0.01709,0.271
-0.02319,0.26123
-0.03784,0.26489
-0.04761,0.24414
-0.02808,0.2417
-0.01831,0.2063
-0.01465,0.19409
-0.01831,0.19531
-0.02075,0.16357
0.00244,0.16724
0.01587,0.14404
0.02197,0.12329
0.03418,0.09888
0.03174,0.07446
0.03418,0.07202
0.03418,0.05615
0.01099,0.03784
0.00977,-0.00366
-0.00977,-0.00732
-0.02319,-0.01831
-0.03296,-0.0415
-0.04517,-0.0769
-0.04517,-0.08911
-0.05737,-0.12207
-0.04761,-0.11597
-0.04639,-0.15015
-0.03174,-0.15381
-0.03784,-0.1709
-0.04639,-0.19287
-0.05859,-0.2063
-0.06958,-0.24658
-0.05005,-0.25635
-0.00977,-0.28198
0.04395,-0.29663
0.10132,-0.29419
0.14893,-0.31616
0.21118,-0.34668
0.22949,-0.33447
0.18921,-0.37354
0.09766,-0.38818
-0.00977,-0.39307
-0.1001,-0.41138
-0.13062,-0.4187
-0.11108,-0.4187
-0.08301,-0.44067
-0.07202,-0.46021
-0.06714,-0.46631
-0.05981,-0.45776
-0.04395,-0.48584
-0.02563,-0.47485
-0.00854,-0.51025
-0.00244,-0.52124
0.01099,-0.52368
0.0061,-0.51392
0.01221,-0.54443
0.01831,-0.5481
0.02441,-0.56396
0.03052,-0.57129
0.02686,-0.57617
0.01465,-0.58838
0.0061,-0.59448
-0.00488,-0.60181
0.0061,-0.60059
0.02075,-0.59326
0.04395,-0.62622
0.05127,-0.61035
0.05493,-0.63232
0.06714,-0.62988
0.07446,-0.6543
0.08179,-0.63965
0.09033,-0.67139
0.09521,-0.65063
0.11597,-0.65308
0.12451,-0.64453
0.12939,-0.62988
0.11475,-0.60913
0.11963,-0.56519
0.12817,-0.53467
0.13428,-0.46875
0.13184,-0.40527
0.12695,-0.32104
0.12085,-0.22583
0.14648,-0.13672
0.13916,-0.03662
0.12207,0.06348
0.11597,0.18921
0.1001,0.27222
0.09766,0.36499
0.09644,0.45898
0.08057,0.56763
0.05615,0.64087
0.01709,0.71045
0,0.75562
-0.02319,0.82397
-0.03662,0.86182
-0.0415,0.89111
-0.07202,0.91309
-0.07935,0.94604
-0.09155,0.93994
-0.08667,0.94482
-0.08057,0.95337
-0.08911,0.93872
-0.07813,0.94116
-0.05981,0.92285
-0.05127,0.896
-0.04517,0.88745
-0.05737,0.87158
-0.07568,0.84473
-0.0769,0.84106
-0.07446,0.82275
-0.0647,0.78979
-0.07202,0.78857
-0.06836,0.76416
-0.06958,0.76904
-0.06104,0.74097
-0.0647,0.74341
-0.06226,0.73242
-0.04517,0.7251
-0.04761,0.72266
-0.04395,0.71777
-0.0415,0.70679
-0.05493,0.67871
-0.05005,0.68237
-0.06348,0.67261
-0.0647,0.6543
-0.05249,0.63477
-0.04517,0.60547
-0.03296,0.58228
-0.04395,0.58228
-0.04395,0.54443
-0.04517,0.52124
-0.05005,0.50171
-0.05493,0.49683
-0.06226,0.48218
-0.06104,0.46631
-0.03906,0.45044
-0.02686,0.4126
-0.02197,0.40771
-0.02686,0.40405
-0.04517,0.3833
-0.05859,0.37598
-0.06348,0.35645
-0.06714,0.37354
-0.06592,0.36499
-0.05249,0.36499
-0.05615,0.3479
-0.05493,0.3479
-0.06104,0.33691
-0.05615,0.34424
-0.0354,0.32715
-0.02441,0.31128
-0.03052,0.30151
-0.03174,0.30884
-0.03296,0.30396
-0.02441,0.29297
-0.03174,0.26123
-0.0293,0.27344
-0.02319,0.23438
-0.01099,0.22583
0.00977,0.20508
-0.00854,0.19409
-0.01465,0.17212
-0.00854,0.15137
0.01221,0.13184
0.03296,0.11475
0.03052,0.09277
0.02075,0.08911
0.01465,0.05615
0.01587,0.05249
0.02319,0.00854
0.02319,-0.00366
0.00244,-0.01099
-0.02197,-0.03662
-0.02197,-0.05493
-0.03174,-0.1001
-0.04272,-0.10742
-0.05859,-0.12573
-0.0708,-0.15991
-0.07324,-0.177
-0.05737,-0.18555
-0.05615,-0.22217
-0.04272,-0.21729
-0.0354,-0.24048
-0.03418,-0.25513
-0.01221,-0.29785
0.01221,-0.29175
0.04517,-0.32104
0.08911,-0.32715
0.12695,-0.36865
0.18188,-0.35889
0.2063,-0.37964
0.20752,-0.39307
0.13794,-0.43213
0.01953,-0.4248
-0.08911,-0.44189
-0.14282,-0.47607
-0.13062,-0.48218
-0.09521,-0.47974
-0.05737,-0.49683
-0.02686,-0.51147
-0.01709,-0.53833
-0.02197,-0.53223
-0.03662,-0.54077
-0.0415,-0.56763
-0.03296,-0.55176
-0.02075,-0.57007
0.0061,-0.59448
0.02686,-0.5957
0.02686,-0.61157
0.01953,-0.60791
0.01465,-0.60791
0.00244,-0.63354
0.00366,-0.625
0.00732,-0.65186
0.03296,-0.66528
0.05371,-0.65063
0.06958,-0.65552
0.05249,-0.66528
0.03174,-0.68604
0.02563,-0.68359
0.03418,-0.69214
0.05859,-0.70313
0.07935,-0.72632
0.08667,-0.71655
0.1001,-0.72876
0.10864,-0.73486
0.11353,-0.72632
0.12207,-0.70068
0.10864,-0.67017
0.10986,-0.6311
0.11841,-0.57251
0.13184,-0.5249
0.13794,-0.44067
0.12451,-0.37354
0.12085,-0.26611
0.12573,-0.16479
0.13306,-0.08667
0.11841,0.03906
0.08301,0.13916
0.04517,0.22949
0.04272,0.354
0.04272,0.44189
0.05859,0.52002
0.04883,0.61646
0.02197,0.67871
-0.00244,0.75195
-0.0354,0.802
-0.04639,0.85815
-0.05737,0.87158
-0.07202,0.91064
-0.08545,0.93018
-0.09521,0.95337
-0.09155,0.95703
-0.09644,0.93994
-0.10254,0.93872
-0.10864,0.92407
-0.1123,0.9082
-0.10254,0.89233
-0.09277,0.87402
-0.08423,0.86182
-0.07324,0.85693
-0.07324,0.84595
-0.06348,0.81177
-0.08057,0.82031
-0.08423,0.79468
-0.08545,0.77393
-0.07568,0.78491
-0.06592,0.75317
-0.07324,0.7605
-0.05859,0.74829
-0.0769,0.72754
-0.0769,0.72266
-0.09155,0.73608
-0.09155,0.70435
-0.06836,0.6958
-0.05493,0.68359
-0.05249,0.69214
-0.04639,0.66895
-0.05493,0.63721
-0.05371,0.62012
-0.06592,0.59937
-0.06958,0.59326
-0.06592,0.5603
-0.05859,0.53833
-0.05737,0.52002
-0.06226,0.49194
-0.06836,0.48218
-0.07813,0.45044
-0.09155,0.43945
-0.06836,0.44312
-0.05981,0.40894
-0.04761,0.40405
-0.05371,0.39795
-0.06592,0.39063
-0.06348,0.36987
-0.06592,0.37231
-0.0647,0.35522
-0.06104,0.35645
-0.04639,0.33325
-0.04272,0.34302
-0.05615,0.3186
-0.06348,0.30884
-0.06592,0.29663
-0.0769,0.31006
-0.06348,0.30396
-0.05737,0.29175
-0.04395,0.27832
-0.03418,0.2771
-0.04395,0.25879
-0.04028,0.24292
-0.03906,0.21484
-0.04272,0.21118
-0.04517,0.19897
-0.04761,0.17456
-0.01953,0.15259
0.00122,0.12817
0.00366,0.10864
-0.01587,0.09888
-0.02075,0.09155
-0.01099,0.0708
0.00732,0.03662
0.00977,0.00854
0.01099,-0.01099
0.01099,-0.02075
0.01465,-0.03784
0.00366,-0.06104
-0.00488,-0.08179
-0.02441,-0.11719
-0.03418,-0.14404
-0.03052,-0.14526
-0.02563,-0.18799
-0.02686,-0.20752
-0.04028,-0.21851
-0.04883,-0.2478
-0.03174,-0.26245
-0.02319,-0.28687
-0.03052,-0.30029
-0.04761,-0.30518
-0.06348,-0.31982
-0.05981,-0.34912
-0.05493,-0.36743
-0.03662,-0.36987
0.01709,-0.41016
0.09399,-0.42358
0.19165,-0.43823
0.25146,-0.43335
0.2417,-0.44556
0.17822,-0.47485
0.05981,-0.48828
-0.05249,-0.51392
-0.12573,-0.50293
-0.14038,-0.53467
-0.10986,-0.53345
-0.08667,-0.55908
-0.06104,-0.54932
-0.02441,-0.58228
-0.01099,-0.5835
-0.01831,-0.59814
-0.04517,-0.59326
-0.03784,-0.62988
-0.01709,-0.61523
-0.00244,-0.62378
0,-0.65186
-0.0061,-0.65552
-0.00122,-0.65186
0,-0.68604
-0.0061,-0.66772
0.00732,-0.68726
0.01953,-0.70068
0.02563,-0.71045
0.02808,-0.71167
0.02319,-0.72388
0.03784,-0.74097
0.05493,-0.72632
0.0708,-0.74951
0.07813,-0.76782
0.07813,-0.76294
0.0647,-0.77515
0.05859,-0.78003
0.06592,-0.78979
0.09033,-0.78369
0.10864,-0.77026
0.1123,-0.75928
0.1123,-0.7373
0.11353,-0.71533
0.11719,-0.66284
0.12085,-0.63354
0.11963,-0.55298
0.12573,-0.46875
0.12451,-0.40649
0.11597,-0.29175
0.10986,-0.21484
0.11475,-0.09399
0.11597,0.0061
0.09766,0.09399
0.0769,0.2063
0.04639,0.30762
0.04395,0.38086
0.04761,0.46021
0.04883,0.54199
0.02319,0.61768
-0.00732,0.6665
-0.0354,0.72876
-0.04883,0.7666
-0.05005,0.78857
-0.05859,0.81909
-0.06348,0.81421
-0.08057,0.81787
-0.1001,0.84106
-0.09399,0.82275
-0.08667,0.82642
-0.07568,0.81787
-0.06226,0.80078
-0.06592,0.7666
-0.07935,0.77026
-0.08789,0.72998
-0.07813,0.71655
-0.06958,0.70557
-0.05493,0.69946
-0.07202,0.69214
-0.07568,0.66284
-0.07935,0.65918
-0.07202,0.66162
-0.06592,0.64087
-0.06104,0.64575
-0.05737,0.62012
-0.05615,0.62866
-0.05615,0.61279
-0.07568,0.5896
-0.0708,0.60669
-0.0708,0.57373
-0.05371,0.57007
-0.03418,0.56885
-0.03296,0.54932
-0.04395,0.53589
-0.05615,0.51514
-0.05493,0.4834
-0.0647,0.45532
-0.0647,0.43457
-0.0708,0.41504
-0.0708,0.41016
-0.06348,0.39185
-0.06592,0.37109
-0.06348,0.33813
-0.05615,0.32715
-0.0415,0.31128
-0.02075,0.28564
-0.00977,0.29541
-0.0415,0.26733
-0.07568,0.26001
-0.10132,0.24536
-0.08545,0.25879
-0.0708,0.24658
-0.06836,0.23071
-0.05737,0.21973
-0.05005,0.23804
-0.04761,0.20874
-0.05615,0.20142
-0.06348,0.21362
-0.06226,0.19775
-0.05127,0.20386
-0.05249,0.1709
-0.04028,0.17212
-0.03662,0.15015
-0.04272,0.13428
-0.06226,0.12329
-0.07446,0.13062
-0.05981,0.09277
-0.04517,0.09399
-0.02686,0.0708
-0.02441,0.05737
-0.01953,0.02441
0.0061,0.02686
0.04028,-0.01709
0.0354,-0.01709
0.03174,-0.03662
0.00122,-0.06348
-0.00122,-0.08911
0.01465,-0.10132
0.02075,-0.1355
0.00488,-0.14648
-0.02197,-0.15503
-0.04761,-0.19653
-0.04395,-0.19653
-0.03662,-0.24048
-0.04639,-0.25391
-0.05981,-0.27832
-0.05615,-0.27466
-0.04272,-0.31128
-0.04028,-0.31982
-0.05127,-0.33081
-0.08057,-0.35889
-0.08423,-0.36621
-0.08789,-0.41138
-0.05493,-0.40283
-0.02808,-0.41748
0.01953,-0.44922
0.07813,-0.45288
0.13306,-0.49072
0.20386,-0.49561
0.21851,-0.49561
0.19165,-0.51392
0.11353,-0.54932
-0.00732,-0.55542
-0.09888,-0.55054
-0.16235,-0.58105
-0.16357,-0.59814
-0.12573,-0.60181
-0.07935,-0.62012
-0.0415,-0.60547
-0.05005,-0.63843
-0.05859,-0.64453
-0.04639,-0.66406
-0.02441,-0.64819
0.00732,-0.67139
0.01099,-0.69458
0,-0.7019
0.01099,-0.68359
0.02686,-0.69336
0.04517,-0.70313
0.02686,-0.72388
0,-0.7312
-0.00366,-0.71899
0.00122,-0.75195
0.02075,-0.73975
0.02197,-0.74219
0.03052,-0.75073
0.05005,-0.75928
0.06714,-0.77148
0.08057,-0.7959
0.06592,-0.78003
0.06348,-0.81055
0.06104,-0.79712
0.0708,-0.79834
0.1001,-0.82642
0.12207,-0.82397
0.13306,-0.82764
0.13794,-0.80811
0.1355,-0.77148
0.13672,-0.7605
0.13306,-0.7019
0.12817,-0.6543
0.12695,-0.59326
0.13672,-0.5188
0.14648,-0.42236
0.15625,-0.34546
0.1355,-0.2356
0.11841,-0.13062
0.09888,-0.05371
0.09644,0.0708
0.08911,0.16846
0.0647,0.25146
0.04517,0.33325
0.01831,0.4126
0.00244,0.48584
-0.00854,0.56396
-0.03418,0.62256
-0.04883,0.67261
-0.06104,0.68481
-0.06836,0.73486
-0.07446,0.74585
-0.09644,0.76782
-0.08057,0.75439
-0.06714,0.75806
-0.0647,0.75806
-0.06592,0.75439
-0.08545,0.72388
-0.07568,0.71533
-0.08423,0.6897
-0.09521,0.68726
-0.09644,0.66528
-0.09155,0.64087
-0.07446,0.6189
-0.06592,0.61646
-0.05615,0.57983
-0.06592,0.58716
-0.06836,0.55786
-0.07568,0.54443
-0.0769,0.5603
-0.06836,0.53833
-0.07202,0.54077
-0.0708,0.5249
-0.08911,0.52734
-0.06958,0.51514
-0.05859,0.50415
-0.04761,0.48828
-0.05371,0.4834
-0.05493,0.47363
-0.05615,0.44312
-0.04639,0.42725
-0.04639,0.42603
-0.02808,0.40771
-0.03174,0.3772
-0.04517,0.36133
-0.06592,0.34424
-0.08301,0.32959
-0.07202,0.33569
-0.07324,0.31616
-0.0769,0.28687
-0.06714,0.29297
-0.06226,0.27222
-0.06958,0.26978
-0.05249,0.25513
-0.06226,0.271
-0.06348,0.25146
-0.06104,0.24536
-0.06836,0.24048
-0.04761,0.25391
-0.04883,0.25635
-0.05859,0.25513
-0.07446,0.25024
-0.0769,0.23193
-0.06348,0.22583
-0.05615,0.2124
-0.05005,0.21362
-0.05127,0.22217
-0.04761,0.21118
-0.0293,0.19775
-0.0293,0.16724
-0.04028,0.15747
-0.03662,0.15869
-0.01709,0.13306
0.01099,0.11719
0.02563,0.11597
0.01221,0.08545
0.00732,0.08301
-0.00122,0.0415
-0.00488,0.04395
-0.01465,0.02563
-0.03296,-0.01465
-0.04639,-0.0354
-0.05371,-0.03906
-0.04395,-0.05615
-0.04395,-0.08545
-0.05249,-0.09888
-0.06226,-0.14282
-0.06592,-0.13672
-0.05615,-0.16235
-0.05493,-0.19531
-0.04272,-0.20874
-0.04272,-0.22949
-0.05737,-0.25146
-0.07202,-0.25146
-0.0769,-0.28687
-0.06836,-0.29053
-0.01831,-0.29541
0.03296,-0.32959
0.10254,-0.3479
0.18066,-0.35034
0.21362,-0.35767
0.2002,-0.39307
0.12451,-0.3833
0.02075,-0.41504
-0.07324,-0.43335
-0.13794,-0.44067
-0.16479,-0.43091
-0.14648,-0.45532
-0.1123,-0.47607
-0.07324,-0.48828
-0.04395,-0.49805
-0.03296,-0.49072
-0.03906,-0.52246
-0.02686,-0.53345
-0.02563,-0.54565
-0.01343,-0.52612
-0.01709,-0.53589
-0.00366,-0.56763
0.02197,-0.57617
0.03174,-0.56274
0.01587,-0.57739
0.00122,-0.57495
0.00244,-0.60913
0.04272,-0.59448
0.05615,-0.6189
0.06348,-0.62134
0.04761,-0.61768
0.03662,-0.64087
0.04028,-0.65063
0.05249,-0.64331
0.04761,-0.64941
0.05981,-0.66162
0.0708,-0.68481
0.09399,-0.69336
0.09644,-0.70435
0.08423,-0.70068
0.0647,-0.68726
0.06104,-0.66406
0.08789,-0.66528
0.10864,-0.62988
0.12451,-0.57007
0.12573,-0.52856
0.12939,-0.45288
0.13794,-0.39551
0.1416,-0.31982
0.15137,-0.24048
0.15503,-0.13794
0.12573,-0.03662
0.10864,0.07935
0.08911,0.17334
0.08301,0.26123
0.07446,0.34424
0.05249,0.43945
0.02808,0.52368
0,0.60913
-0.01221,0.66528
-0.02441,0.72998
-0.0415,0.7666
-0.06104,0.80688
-0.07568,0.83618
-0.0708,0.84961
-0.08179,0.8728
-0.08545,0.88013
-0.06958,0.88745
-0.05981,0.86182
-0.05737,0.86548
-0.08789,0.85083
-0.10376,0.84961
-0.09277,0.82397
-0.06714,0.81787
-0.05615,0.80078
-0.07446,0.77637
-0.08423,0.76416
-0.07202,0.7373
-0.06592,0.73608
-0.07324,0.71289
-0.07935,0.70679
-0.08423,0.69458
-0.05981,0.68726
-0.06348,0.69336
-0.06714,0.66284
-0.07935,0.65796
-0.06958,0.64941
-0.05127,0.65186
-0.03906,0.62256
-0.04028,0.625
-0.04639,0.60303
-0.04639,0.60303
-0.04883,0.57129
-0.05981,0.55176
-0.06348,0.53711
-0.04883,0.50415
-0.01953,0.50049
-0.01099,0.48218
-0.0293,0.43701
-0.06958,0.44067
-0.08545,0.41138
-0.07324,0.39795
-0.0647,0.37354
-0.06592,0.35034
-0.05493,0.35645
-0.05493,0.33569
-0.05371,0.33447
-0.02319,0.31494
-0.01465,0.29541
-0.01953,0.31006
-0.03784,0.28076
-0.06226,0.29907
-0.06592,0.28931
-0.06226,0.27344
-0.05005,0.27954
-0.04883,0.25879
-0.04395,0.24902
-0.05005,0.24414
-0.04883,0.24536
-0.04028,0.22217
-0.03174,0.22827
-0.03174,0.2063
-0.04395,0.19165
-0.05615,0.17944
-0.04761,0.177
-0.03174,0.16602
-0.01221,0.15381
-0.00488,0.13794
0.00366,0.11597
0.01465,0.07813
0.03418,0.06592
0.0354,0.04761
0.03174,0.0293
0.00732,0.00977
-0.00366,-0.02075
-0.01465,-0.03784
-0.02197,-0.05249
-0.02319,-0.06226
-0.0293,-0.09277
-0.03052,-0.12695
-0.0415,-0.14893
-0.0415,-0.16968
-0.03662,-0.18311
-0.03418,-0.19043
-0.02075,-0.22949
-0.0415,-0.24414
-0.04761,-0.27222
-0.0647,-0.27466
-0.08057,-0.30762
-0.08423,-0.31128
-0.06714,-0.32593
-0.03052,-0.34912
-0.00366,-0.36133
0.02563,-0.38208
0.06592,-0.41016
0.13062,-0.41138
0.19531,-0.43823
0.23193,-0.44678
0.19653,-0.46631
0.09888,-0.48218
-0.03296,-0.49805
-0.11353,-0.50659
-0.13672,-0.51636
-0.10986,-0.52002
-0.06592,-0.5249
-0.04883,-0.54565
-0.0354,-0.5481
-0.03174,-0.56274
-0.02441,-0.58838
-0.01953,-0.58838
0.00244,-0.60303
-0.01831,-0.60059
-0.02441,-0.63232
-0.05005,-0.6311
-0.04883,-0.625
-0.02075,-0.63477
0,-0.66895
0.01587,-0.67993
0.00366,-0.68481
-0.00854,-0.6958
-0.00977,-0.68115
0.01831,-0.71411
0.04517,-0.71899
0.06348,-0.72998
0.05493,-0.73608
0.05493,-0.73608
0.04272,-0.75317
0.05859,-0.75928
0.05737,-0.76416
0.06714,-0.75928
0.07935,-0.77637
0.06592,-0.77393
0.07324,-0.7605
0.08545,-0.73486
0.1123,-0.73853
0.12695,-0.70923
0.12573,-0.65308
0.10132,-0.60303
0.10986,-0.54077
0.10498,-0.45166
0.12573,-0.35767
0.14648,-0.28564
0.15625,-0.16357
0.14526,-0.07935
0.13184,0.02808
0.1123,0.12085
0.09277,0.22217
0.07813,0.32715
0.05859,0.42114
0.03662,0.50049
0.00854,0.59692
-0.01831,0.64575
-0.04272,0.72388
-0.05371,0.75073
-0.0647,0.78979
-0.05615,0.82275
-0.06226,0.86182
-0.08057,0.86304
-0.10132,0.8667
-0.10742,0.87524
-0.08545,0.88989
-0.07568,0.8667
-0.07568,0.85938
-0.08667,0.86792
-0.08545,0.84106
-0.08667,0.84229
-0.09277,0.83008
-0.09521,0.81909
-0.09033,0.79468
-0.09033,0.79468
-0.07935,0.76782
-0.08911,0.76782
-0.08545,0.77271
-0.09399,0.74463
-0.07935,0.7605
-0.07568,0.73853
-0.08179,0.72998
-0.06958,0.72632
-0.07324,0.72632
-0.06592,0.73242
-0.0647,0.72754
-0.06348,0.71777
-0.05371,0.69946
-0.05371,0.68726
-0.05981,0.66528
-0.06836,0.6543
-0.07202,0.63721
-0.06592,0.60303
-0.05737,0.5957
-0.04761,0.57251
-0.04272,0.53467
-0.04272,0.52246
-0.05127,0.49194
-0.0647,0.46875
-0.06592,0.44922
-0.05005,0.43823
-0.03662,0.42114
-0.04028,0.39307
-0.05493,0.39307
-0.06836,0.37354
-0.06958,0.36865
-0.05615,0.35156
-0.05615,0.34668
-0.05493,0.32471
-0.05737,0.33813
-0.04883,0.32959
-0.0354,0.30029
-0.02075,0.30273
-0.03662,0.30518
-0.05005,0.27832
-0.05981,0.27588
-0.0769,0.2832
